{
  "AcquisitionMatrixPE": 104,
  "AcquisitionNumber": 1,
  "AcquisitionTime": "18:22:21.180000",
  "BandwidthPerPixelPhaseEncode": 16.578,
  "BaseResolution": 104,
  "BodyPartExamined": "BRAIN",
  "CoilCombinationMethod": "Sum of Squares",
  "ConsistencyInfo": "N4_VE11C_LATEST_20160120",
  "ConversionSoftware": "dcm2niix",
  "ConversionSoftwareVersion": "v1.0.20220720",
  "DerivedVendorReportedEchoSpacing": 0.000580009,
  "DeviceSerialNumber": "67026",
  "DwellTime": 2.1e-06,
  "EchoTime": 0.037,
  "EchoTrainLength": 104,
  "EffectiveEchoSpacing": 0.000580009,
  "FlipAngle": 52,
  "HeudiconvVersion": "0.11.4",
  "ImageComments": "Unaliased MB8/PE3/LB",
  "ImageOrientationPatientDICOM": [
    0.997131,
    0.0469662,
    0.0593585,
    -0.0236729,
    0.938377,
    -0.344803
  ],
  "ImageOrientationText": "Tra>Cor(-20.1)>Sag(4.1)",
  "ImageType": [
    "ORIGINAL",
    "PRIMARY",
    "M",
    "MB",
    "ND",
    "MOSAIC"
  ],
  "ImagingFrequency": 123.198,
  "InPlanePhaseEncodingDirectionDICOM": "COL",
  "InstitutionAddress": "13th St. 149,Charlestown,MA,US,02129",
  "InstitutionName": "MGH PrismaFit-Bay4",
  "InstitutionalDepartmentName": "Martinos Center",
  "MRAcquisitionType": "2D",
  "MagneticFieldStrength": 3,
  "Manufacturer": "Siemens",
  "ManufacturersModelName": "Prisma_fit",
  "MatrixCoilMode": "SENSE",
  "Modality": "MR",
  "MultibandAccelerationFactor": 8,
  "NonlinearGradientCorrection": false,
  "PartialFourier": 1,
  "PatientPosition": "HFS",
  "PercentPhaseFOV": 100,
  "PercentSampling": 100,
  "PhaseEncodingDirection": "j-",
  "PhaseEncodingSteps": 104,
  "PhaseResolution": 1,
  "PixelBandwidth": 2290,
  "ProcedureStepDescription": "INVESTIGATORS^Greve",
  "ProtocolName": "rfMRI_REST_AP",
  "PulseSequenceDetails": "%CustomerSeq%\\hcp_mbep2d_bold",
  "ReceiveCoilActiveElements": "HEA;HEP",
  "ReceiveCoilName": "Head_32",
  "ReconMatrixPE": 104,
  "RepetitionTime": 0.8,
  "SAR": 0.0872574,
  "ScanOptions": "FS\\EXT",
  "ScanningSequence": "EP",
  "SequenceName": "epfid2d1_104",
  "SequenceVariant": "SK\\SS",
  "SeriesDescription": "rfMRI_REST_AP",
  "SeriesNumber": 18,
  "ShimSetting": [
    -1193,
    -10510,
    -10146,
    523,
    159,
    118,
    -22,
    24
  ],
  "SliceThickness": 2,
  "SliceTiming": [
    0,
    0.4325,
    0.085,
    0.52,
    0.1725,
    0.605,
    0.26,
    0.6925,
    0.345,
    0,
    0.4325,
    0.085,
    0.52,
    0.1725,
    0.605,
    0.26,
    0.6925,
    0.345,
    0,
    0.4325,
    0.085,
    0.52,
    0.1725,
    0.605,
    0.26,
    0.6925,
    0.345,
    0,
    0.4325,
    0.085,
    0.52,
    0.1725,
    0.605,
    0.26,
    0.6925,
    0.345,
    0,
    0.4325,
    0.085,
    0.52,
    0.1725,
    0.605,
    0.26,
    0.6925,
    0.345,
    0,
    0.4325,
    0.085,
    0.52,
    0.1725,
    0.605,
    0.26,
    0.6925,
    0.345,
    0,
    0.4325,
    0.085,
    0.52,
    0.1725,
    0.605,
    0.26,
    0.6925,
    0.345,
    0,
    0.4325,
    0.085,
    0.52,
    0.1725,
    0.605,
    0.26,
    0.6925,
    0.345
  ],
  "SoftwareVersions": "syngo MR E11",
  "SpacingBetweenSlices": 2,
  "StationName": "BAY4OC",
  "TaskName": "rest",
  "TotalReadoutTime": 0.0597409,
  "TxRefAmp": 264.706,
  "WipMemBlock": "8986e342-4a22-45e2-9767-56175f4d9e61||Sequence: ve11c/master r/5b0256d+; Dec  9 2016 09:38:51 by eja",
  "dcmmeta_affine": [
    [
      -1.9942625761032104,
      -0.047345731407403946,
      0.1437893956899643,
      106.60310363769531
    ],
    [
      -0.09393230080604553,
      1.8767532110214233,
      -0.6848169565200806,
      -53.89645767211914
    ],
    [
      0.11871702969074249,
      0.6896055936813354,
      1.8735928535461426,
      -72.4813461303711
    ],
    [
      0,
      0,
      0,
      1
    ]
  ],
  "dcmmeta_reorient_transform": [
    [
      0,
      -1,
      0,
      103
    ],
    [
      1,
      0,
      0,
      0
    ],
    [
      0,
      0,
      1,
      0
    ],
    [
      0,
      0,
      0,
      1
    ]
  ],
  "dcmmeta_shape": [
    104,
    104,
    72,
    600
  ],
  "dcmmeta_slice_dim": 2,
  "dcmmeta_version": 0.6,
  "time": {
    "samples": {
      "AcquisitionNumber": [
        1,
        2,
        3,
        4,
        5,
        6,
        7,
        8,
        9,
        10,
        11,
        12,
        13,
        14,
        15,
        16,
        17,
        18,
        19,
        20,
        21,
        22,
        23,
        24,
        25,
        26,
        27,
        28,
        29,
        30,
        31,
        32,
        33,
        34,
        35,
        36,
        37,
        38,
        39,
        40,
        41,
        42,
        43,
        44,
        45,
        46,
        47,
        48,
        49,
        50,
        51,
        52,
        53,
        54,
        55,
        56,
        57,
        58,
        59,
        60,
        61,
        62,
        63,
        64,
        65,
        66,
        67,
        68,
        69,
        70,
        71,
        72,
        73,
        74,
        75,
        76,
        77,
        78,
        79,
        80,
        81,
        82,
        83,
        84,
        85,
        86,
        87,
        88,
        89,
        90,
        91,
        92,
        93,
        94,
        95,
        96,
        97,
        98,
        99,
        100,
        101,
        102,
        103,
        104,
        105,
        106,
        107,
        108,
        109,
        110,
        111,
        112,
        113,
        114,
        115,
        116,
        117,
        118,
        119,
        120,
        121,
        122,
        123,
        124,
        125,
        126,
        127,
        128,
        129,
        130,
        131,
        132,
        133,
        134,
        135,
        136,
        137,
        138,
        139,
        140,
        141,
        142,
        143,
        144,
        145,
        146,
        147,
        148,
        149,
        150,
        151,
        152,
        153,
        154,
        155,
        156,
        157,
        158,
        159,
        160,
        161,
        162,
        163,
        164,
        165,
        166,
        167,
        168,
        169,
        170,
        171,
        172,
        173,
        174,
        175,
        176,
        177,
        178,
        179,
        180,
        181,
        182,
        183,
        184,
        185,
        186,
        187,
        188,
        189,
        190,
        191,
        192,
        193,
        194,
        195,
        196,
        197,
        198,
        199,
        200,
        201,
        202,
        203,
        204,
        205,
        206,
        207,
        208,
        209,
        210,
        211,
        212,
        213,
        214,
        215,
        216,
        217,
        218,
        219,
        220,
        221,
        222,
        223,
        224,
        225,
        226,
        227,
        228,
        229,
        230,
        231,
        232,
        233,
        234,
        235,
        236,
        237,
        238,
        239,
        240,
        241,
        242,
        243,
        244,
        245,
        246,
        247,
        248,
        249,
        250,
        251,
        252,
        253,
        254,
        255,
        256,
        257,
        258,
        259,
        260,
        261,
        262,
        263,
        264,
        265,
        266,
        267,
        268,
        269,
        270,
        271,
        272,
        273,
        274,
        275,
        276,
        277,
        278,
        279,
        280,
        281,
        282,
        283,
        284,
        285,
        286,
        287,
        288,
        289,
        290,
        291,
        292,
        293,
        294,
        295,
        296,
        297,
        298,
        299,
        300,
        301,
        302,
        303,
        304,
        305,
        306,
        307,
        308,
        309,
        310,
        311,
        312,
        313,
        314,
        315,
        316,
        317,
        318,
        319,
        320,
        321,
        322,
        323,
        324,
        325,
        326,
        327,
        328,
        329,
        330,
        331,
        332,
        333,
        334,
        335,
        336,
        337,
        338,
        339,
        340,
        341,
        342,
        343,
        344,
        345,
        346,
        347,
        348,
        349,
        350,
        351,
        352,
        353,
        354,
        355,
        356,
        357,
        358,
        359,
        360,
        361,
        362,
        363,
        364,
        365,
        366,
        367,
        368,
        369,
        370,
        371,
        372,
        373,
        374,
        375,
        376,
        377,
        378,
        379,
        380,
        381,
        382,
        383,
        384,
        385,
        386,
        387,
        388,
        389,
        390,
        391,
        392,
        393,
        394,
        395,
        396,
        397,
        398,
        399,
        400,
        401,
        402,
        403,
        404,
        405,
        406,
        407,
        408,
        409,
        410,
        411,
        412,
        413,
        414,
        415,
        416,
        417,
        418,
        419,
        420,
        421,
        422,
        423,
        424,
        425,
        426,
        427,
        428,
        429,
        430,
        431,
        432,
        433,
        434,
        435,
        436,
        437,
        438,
        439,
        440,
        441,
        442,
        443,
        444,
        445,
        446,
        447,
        448,
        449,
        450,
        451,
        452,
        453,
        454,
        455,
        456,
        457,
        458,
        459,
        460,
        461,
        462,
        463,
        464,
        465,
        466,
        467,
        468,
        469,
        470,
        471,
        472,
        473,
        474,
        475,
        476,
        477,
        478,
        479,
        480,
        481,
        482,
        483,
        484,
        485,
        486,
        487,
        488,
        489,
        490,
        491,
        492,
        493,
        494,
        495,
        496,
        497,
        498,
        499,
        500,
        501,
        502,
        503,
        504,
        505,
        506,
        507,
        508,
        509,
        510,
        511,
        512,
        513,
        514,
        515,
        516,
        517,
        518,
        519,
        520,
        521,
        522,
        523,
        524,
        525,
        526,
        527,
        528,
        529,
        530,
        531,
        532,
        533,
        534,
        535,
        536,
        537,
        538,
        539,
        540,
        541,
        542,
        543,
        544,
        545,
        546,
        547,
        548,
        549,
        550,
        551,
        552,
        553,
        554,
        555,
        556,
        557,
        558,
        559,
        560,
        561,
        562,
        563,
        564,
        565,
        566,
        567,
        568,
        569,
        570,
        571,
        572,
        573,
        574,
        575,
        576,
        577,
        578,
        579,
        580,
        581,
        582,
        583,
        584,
        585,
        586,
        587,
        588,
        589,
        590,
        591,
        592,
        593,
        594,
        595,
        596,
        597,
        598,
        599,
        600
      ],
      "AcquisitionTime": [
        "182221.180000",
        "182221.980000",
        "182222.780000",
        "182223.580000",
        "182224.380000",
        "182225.180000",
        "182225.980000",
        "182226.780000",
        "182227.580000",
        "182228.380000",
        "182229.180000",
        "182229.980000",
        "182230.780000",
        "182231.580000",
        "182232.380000",
        "182233.180000",
        "182233.980000",
        "182234.780000",
        "182235.580000",
        "182236.380000",
        "182237.180000",
        "182237.980000",
        "182238.780000",
        "182239.580000",
        "182240.380000",
        "182241.180000",
        "182241.980000",
        "182242.780000",
        "182243.580000",
        "182244.380000",
        "182245.180000",
        "182245.980000",
        "182246.780000",
        "182247.580000",
        "182248.380000",
        "182249.180000",
        "182249.980000",
        "182250.780000",
        "182251.580000",
        "182252.380000",
        "182253.180000",
        "182253.980000",
        "182254.780000",
        "182255.580000",
        "182256.380000",
        "182257.180000",
        "182257.980000",
        "182258.780000",
        "182259.580000",
        "182300.380000",
        "182301.180000",
        "182301.980000",
        "182302.780000",
        "182303.580000",
        "182304.380000",
        "182305.180000",
        "182305.980000",
        "182306.780000",
        "182307.580000",
        "182308.380000",
        "182309.180000",
        "182309.980000",
        "182310.780000",
        "182311.580000",
        "182312.380000",
        "182313.180000",
        "182313.980000",
        "182314.780000",
        "182315.580000",
        "182316.380000",
        "182317.180000",
        "182317.980000",
        "182318.780000",
        "182319.580000",
        "182320.380000",
        "182321.180000",
        "182321.980000",
        "182322.780000",
        "182323.580000",
        "182324.380000",
        "182325.180000",
        "182325.980000",
        "182326.780000",
        "182327.580000",
        "182328.380000",
        "182329.180000",
        "182329.980000",
        "182330.780000",
        "182331.580000",
        "182332.380000",
        "182333.180000",
        "182333.980000",
        "182334.780000",
        "182335.580000",
        "182336.380000",
        "182337.180000",
        "182337.980000",
        "182338.780000",
        "182339.580000",
        "182340.380000",
        "182341.180000",
        "182341.980000",
        "182342.780000",
        "182343.580000",
        "182344.380000",
        "182345.180000",
        "182345.980000",
        "182346.780000",
        "182347.580000",
        "182348.380000",
        "182349.180000",
        "182349.980000",
        "182350.780000",
        "182351.580000",
        "182352.380000",
        "182353.180000",
        "182353.980000",
        "182354.780000",
        "182355.580000",
        "182356.380000",
        "182357.180000",
        "182357.980000",
        "182358.780000",
        "182359.580000",
        "182400.380000",
        "182401.180000",
        "182401.980000",
        "182402.780000",
        "182403.580000",
        "182404.380000",
        "182405.180000",
        "182405.980000",
        "182406.780000",
        "182407.580000",
        "182408.380000",
        "182409.180000",
        "182409.980000",
        "182410.780000",
        "182411.580000",
        "182412.380000",
        "182413.180000",
        "182413.980000",
        "182414.780000",
        "182415.580000",
        "182416.380000",
        "182417.180000",
        "182417.980000",
        "182418.780000",
        "182419.580000",
        "182420.380000",
        "182421.180000",
        "182421.980000",
        "182422.780000",
        "182423.580000",
        "182424.380000",
        "182425.180000",
        "182425.980000",
        "182426.780000",
        "182427.580000",
        "182428.380000",
        "182429.180000",
        "182429.980000",
        "182430.780000",
        "182431.580000",
        "182432.380000",
        "182433.180000",
        "182433.980000",
        "182434.780000",
        "182435.580000",
        "182436.380000",
        "182437.180000",
        "182437.980000",
        "182438.780000",
        "182439.580000",
        "182440.380000",
        "182441.180000",
        "182441.980000",
        "182442.780000",
        "182443.580000",
        "182444.380000",
        "182445.180000",
        "182445.980000",
        "182446.780000",
        "182447.580000",
        "182448.380000",
        "182449.180000",
        "182449.980000",
        "182450.780000",
        "182451.580000",
        "182452.380000",
        "182453.180000",
        "182453.980000",
        "182454.780000",
        "182455.580000",
        "182456.380000",
        "182457.180000",
        "182457.980000",
        "182458.780000",
        "182459.580000",
        "182500.380000",
        "182501.180000",
        "182501.980000",
        "182502.780000",
        "182503.580000",
        "182504.380000",
        "182505.180000",
        "182505.980000",
        "182506.780000",
        "182507.580000",
        "182508.380000",
        "182509.180000",
        "182509.980000",
        "182510.780000",
        "182511.580000",
        "182512.380000",
        "182513.180000",
        "182513.980000",
        "182514.780000",
        "182515.580000",
        "182516.380000",
        "182517.180000",
        "182517.980000",
        "182518.780000",
        "182519.580000",
        "182520.380000",
        "182521.180000",
        "182521.980000",
        "182522.780000",
        "182523.580000",
        "182524.380000",
        "182525.180000",
        "182525.980000",
        "182526.780000",
        "182527.580000",
        "182528.380000",
        "182529.180000",
        "182529.980000",
        "182530.780000",
        "182531.580000",
        "182532.380000",
        "182533.180000",
        "182533.980000",
        "182534.780000",
        "182535.580000",
        "182536.380000",
        "182537.180000",
        "182537.980000",
        "182538.780000",
        "182539.580000",
        "182540.380000",
        "182541.180000",
        "182541.980000",
        "182542.780000",
        "182543.580000",
        "182544.380000",
        "182545.180000",
        "182545.980000",
        "182546.780000",
        "182547.580000",
        "182548.380000",
        "182549.180000",
        "182549.980000",
        "182550.780000",
        "182551.580000",
        "182552.380000",
        "182553.180000",
        "182553.980000",
        "182554.780000",
        "182555.580000",
        "182556.380000",
        "182557.180000",
        "182557.980000",
        "182558.780000",
        "182559.580000",
        "182600.380000",
        "182601.180000",
        "182601.980000",
        "182602.780000",
        "182603.580000",
        "182604.380000",
        "182605.180000",
        "182605.980000",
        "182606.780000",
        "182607.580000",
        "182608.380000",
        "182609.180000",
        "182609.980000",
        "182610.780000",
        "182611.580000",
        "182612.380000",
        "182613.180000",
        "182613.980000",
        "182614.780000",
        "182615.580000",
        "182616.380000",
        "182617.180000",
        "182617.980000",
        "182618.780000",
        "182619.580000",
        "182620.380000",
        "182621.180000",
        "182621.980000",
        "182622.780000",
        "182623.580000",
        "182624.380000",
        "182625.180000",
        "182625.980000",
        "182626.780000",
        "182627.580000",
        "182628.380000",
        "182629.180000",
        "182629.980000",
        "182630.780000",
        "182631.580000",
        "182632.380000",
        "182633.180000",
        "182633.980000",
        "182634.780000",
        "182635.580000",
        "182636.380000",
        "182637.180000",
        "182637.980000",
        "182638.780000",
        "182639.580000",
        "182640.380000",
        "182641.180000",
        "182641.980000",
        "182642.780000",
        "182643.580000",
        "182644.380000",
        "182645.180000",
        "182645.980000",
        "182646.780000",
        "182647.580000",
        "182648.380000",
        "182649.180000",
        "182649.980000",
        "182650.780000",
        "182651.580000",
        "182652.380000",
        "182653.180000",
        "182653.980000",
        "182654.780000",
        "182655.580000",
        "182656.380000",
        "182657.180000",
        "182657.980000",
        "182658.780000",
        "182659.580000",
        "182700.380000",
        "182701.180000",
        "182701.980000",
        "182702.780000",
        "182703.580000",
        "182704.380000",
        "182705.180000",
        "182705.980000",
        "182706.780000",
        "182707.580000",
        "182708.380000",
        "182709.180000",
        "182709.980000",
        "182710.780000",
        "182711.580000",
        "182712.380000",
        "182713.180000",
        "182713.980000",
        "182714.780000",
        "182715.580000",
        "182716.380000",
        "182717.180000",
        "182717.980000",
        "182718.780000",
        "182719.580000",
        "182720.380000",
        "182721.180000",
        "182721.980000",
        "182722.780000",
        "182723.580000",
        "182724.380000",
        "182725.180000",
        "182725.980000",
        "182726.780000",
        "182727.580000",
        "182728.380000",
        "182729.180000",
        "182729.980000",
        "182730.780000",
        "182731.580000",
        "182732.380000",
        "182733.180000",
        "182733.980000",
        "182734.780000",
        "182735.580000",
        "182736.380000",
        "182737.180000",
        "182737.980000",
        "182738.780000",
        "182739.580000",
        "182740.380000",
        "182741.180000",
        "182741.980000",
        "182742.780000",
        "182743.580000",
        "182744.380000",
        "182745.180000",
        "182745.980000",
        "182746.780000",
        "182747.580000",
        "182748.380000",
        "182749.180000",
        "182749.980000",
        "182750.780000",
        "182751.580000",
        "182752.380000",
        "182753.180000",
        "182753.980000",
        "182754.780000",
        "182755.580000",
        "182756.380000",
        "182757.180000",
        "182757.980000",
        "182758.780000",
        "182759.580000",
        "182800.380000",
        "182801.180000",
        "182801.980000",
        "182802.780000",
        "182803.580000",
        "182804.380000",
        "182805.180000",
        "182805.980000",
        "182806.780000",
        "182807.580000",
        "182808.380000",
        "182809.180000",
        "182809.980000",
        "182810.780000",
        "182811.580000",
        "182812.380000",
        "182813.180000",
        "182813.980000",
        "182814.780000",
        "182815.580000",
        "182816.380000",
        "182817.180000",
        "182817.980000",
        "182818.780000",
        "182819.580000",
        "182820.380000",
        "182821.180000",
        "182821.980000",
        "182822.780000",
        "182823.580000",
        "182824.380000",
        "182825.180000",
        "182825.980000",
        "182826.780000",
        "182827.580000",
        "182828.380000",
        "182829.180000",
        "182829.980000",
        "182830.780000",
        "182831.580000",
        "182832.380000",
        "182833.180000",
        "182833.980000",
        "182834.780000",
        "182835.580000",
        "182836.380000",
        "182837.180000",
        "182837.980000",
        "182838.780000",
        "182839.580000",
        "182840.380000",
        "182841.180000",
        "182841.980000",
        "182842.780000",
        "182843.580000",
        "182844.380000",
        "182845.180000",
        "182845.980000",
        "182846.780000",
        "182847.580000",
        "182848.380000",
        "182849.180000",
        "182849.980000",
        "182850.780000",
        "182851.580000",
        "182852.380000",
        "182853.180000",
        "182853.980000",
        "182854.780000",
        "182855.580000",
        "182856.380000",
        "182857.180000",
        "182857.980000",
        "182858.780000",
        "182859.580000",
        "182900.380000",
        "182901.180000",
        "182901.980000",
        "182902.780000",
        "182903.580000",
        "182904.380000",
        "182905.180000",
        "182905.980000",
        "182906.780000",
        "182907.580000",
        "182908.380000",
        "182909.180000",
        "182909.980000",
        "182910.780000",
        "182911.580000",
        "182912.380000",
        "182913.180000",
        "182913.980000",
        "182914.780000",
        "182915.580000",
        "182916.380000",
        "182917.180000",
        "182917.980000",
        "182918.780000",
        "182919.580000",
        "182920.380000",
        "182921.180000",
        "182921.980000",
        "182922.780000",
        "182923.580000",
        "182924.380000",
        "182925.180000",
        "182925.980000",
        "182926.780000",
        "182927.580000",
        "182928.380000",
        "182929.180000",
        "182929.980000",
        "182930.780000",
        "182931.580000",
        "182932.380000",
        "182933.180000",
        "182933.980000",
        "182934.780000",
        "182935.580000",
        "182936.380000",
        "182937.180000",
        "182937.980000",
        "182938.780000",
        "182939.580000",
        "182940.380000",
        "182941.180000",
        "182941.980000",
        "182942.780000",
        "182943.580000",
        "182944.380000",
        "182945.180000",
        "182945.980000",
        "182946.780000",
        "182947.580000",
        "182948.380000",
        "182949.180000",
        "182949.980000",
        "182950.780000",
        "182951.580000",
        "182952.380000",
        "182953.180000",
        "182953.980000",
        "182954.780000",
        "182955.580000",
        "182956.380000",
        "182957.180000",
        "182957.980000",
        "182958.780000",
        "182959.580000",
        "183000.380000",
        "183001.180000",
        "183001.980000",
        "183002.780000",
        "183003.580000",
        "183004.380000",
        "183005.180000",
        "183005.980000",
        "183006.780000",
        "183007.580000",
        "183008.380000",
        "183009.180000",
        "183009.980000",
        "183010.780000",
        "183011.580000",
        "183012.380000",
        "183013.180000",
        "183013.980000",
        "183014.780000",
        "183015.580000",
        "183016.380000",
        "183017.180000",
        "183017.980000",
        "183018.780000",
        "183019.580000",
        "183020.380000"
      ],
      "ContentTime": [
        "182304.078000",
        "182304.081000",
        "182304.084000",
        "182304.087000",
        "182304.090000",
        "182304.093000",
        "182304.096000",
        "182304.099000",
        "182304.102000",
        "182304.105000",
        "182304.107000",
        "182304.120000",
        "182304.123000",
        "182304.127000",
        "182304.130000",
        "182304.133000",
        "182304.136000",
        "182304.139000",
        "182304.142000",
        "182304.145000",
        "182304.147000",
        "182304.150000",
        "182304.153000",
        "182304.156000",
        "182304.159000",
        "182304.162000",
        "182304.165000",
        "182304.168000",
        "182304.171000",
        "182304.174000",
        "182304.176000",
        "182304.180000",
        "182304.183000",
        "182304.185000",
        "182304.188000",
        "182324.046000",
        "182324.049000",
        "182324.052000",
        "182324.055000",
        "182324.058000",
        "182324.060000",
        "182324.063000",
        "182324.066000",
        "182324.069000",
        "182324.099000",
        "182324.102000",
        "182324.105000",
        "182324.108000",
        "182324.111000",
        "182324.114000",
        "182324.117000",
        "182324.119000",
        "182324.122000",
        "182324.126000",
        "182324.129000",
        "182324.132000",
        "182324.135000",
        "182324.138000",
        "182324.141000",
        "182324.144000",
        "182324.147000",
        "182324.150000",
        "182324.153000",
        "182324.155000",
        "182324.158000",
        "182324.161000",
        "182324.164000",
        "182324.167000",
        "182324.170000",
        "182324.173000",
        "182324.176000",
        "182324.179000",
        "182324.181000",
        "182324.184000",
        "182324.187000",
        "182324.190000",
        "182324.193000",
        "182344.045000",
        "182344.048000",
        "182344.051000",
        "182344.054000",
        "182344.057000",
        "182344.060000",
        "182344.062000",
        "182344.065000",
        "182344.068000",
        "182344.071000",
        "182344.074000",
        "182344.077000",
        "182344.080000",
        "182344.083000",
        "182344.086000",
        "182344.089000",
        "182344.092000",
        "182344.095000",
        "182344.097000",
        "182344.101000",
        "182344.103000",
        "182344.106000",
        "182344.109000",
        "182344.112000",
        "182344.115000",
        "182404.045000",
        "182404.048000",
        "182404.051000",
        "182404.054000",
        "182404.057000",
        "182404.060000",
        "182404.062000",
        "182404.065000",
        "182404.068000",
        "182404.071000",
        "182404.074000",
        "182404.077000",
        "182404.080000",
        "182404.083000",
        "182404.086000",
        "182404.089000",
        "182404.092000",
        "182404.094000",
        "182404.097000",
        "182404.100000",
        "182404.103000",
