{
  "AcquisitionMatrixPE": 104,
  "AcquisitionNumber": 1,
  "AcquisitionTime": "08:26:2.855000",
  "BandwidthPerPixelPhaseEncode": 16.578,
  "BaseResolution": 104,
  "BodyPartExamined": "BRAIN",
  "CoilCombinationMethod": "Sum of Squares",
  "ConsistencyInfo": "N4_VE11C_LATEST_20160120",
  "ConversionSoftware": "dcm2niix",
  "ConversionSoftwareVersion": "v1.0.20220720",
  "DerivedVendorReportedEchoSpacing": 0.000580009,
  "DeviceSerialNumber": "67026",
  "DwellTime": 2.1e-06,
  "EchoTime": 0.037,
  "EchoTrainLength": 104,
  "EffectiveEchoSpacing": 0.000580009,
  "FlipAngle": 52,
  "HeudiconvVersion": "0.11.4",
  "ImageComments": "Unaliased MB8/PE3/LB",
  "ImageOrientationPatientDICOM": [
    0.999567,
    0.0209781,
    -0.0206291,
    -0.0246034,
    0.98048,
    -0.195071
  ],
  "ImageOrientationText": "Tra>Cor(-11.3)>Sag(-0.9)",
  "ImageType": [
    "ORIGINAL",
    "PRIMARY",
    "M",
    "MB",
    "ND",
    "MOSAIC"
  ],
  "ImagingFrequency": 123.239,
  "InPlanePhaseEncodingDirectionDICOM": "COL",
  "InstitutionAddress": "13th St. 149,Charlestown,MA,US,02129",
  "InstitutionName": "Martinos Center Bay 4 Prisma",
  "InstitutionalDepartmentName": "Martinos Center",
  "MRAcquisitionType": "2D",
  "MagneticFieldStrength": 3,
  "Manufacturer": "Siemens",
  "ManufacturersModelName": "Prisma_fit",
  "MatrixCoilMode": "SENSE",
  "Modality": "MR",
  "MultibandAccelerationFactor": 8,
  "NonlinearGradientCorrection": false,
  "PartialFourier": 1,
  "PatientPosition": "HFS",
  "PercentPhaseFOV": 100,
  "PercentSampling": 100,
  "PhaseEncodingDirection": "j-",
  "PhaseEncodingSteps": 104,
  "PhaseResolution": 1,
  "PixelBandwidth": 2290,
  "ProcedureStepDescription": "INVESTIGATORS^Greve",
  "ProtocolName": "rfMRI_REST_AP",
  "PulseSequenceDetails": "%CustomerSeq%\\hcp_mbep2d_bold",
  "ReceiveCoilActiveElements": "HEA;HEP",
  "ReceiveCoilName": "Head_32",
  "ReconMatrixPE": 104,
  "RepetitionTime": 0.8,
  "SAR": 0.0677356,
  "ScanOptions": "FS\\EXT",
  "ScanningSequence": "EP",
  "SequenceName": "epfid2d1_104",
  "SequenceVariant": "SK\\SS",
  "SeriesDescription": "rfMRI_REST_AP",
  "SeriesNumber": 19,
  "ShimSetting": [
    -1296,
    -10427,
    -10222,
    369,
    69,
    185,
    -54,
    22
  ],
  "SliceThickness": 2,
  "SliceTiming": [
    0,
    0.4325,
    0.085,
    0.52,
    0.1725,
    0.605,
    0.26,
    0.6925,
    0.345,
    0,
    0.4325,
    0.085,
    0.52,
    0.1725,
    0.605,
    0.26,
    0.6925,
    0.345,
    0,
    0.4325,
    0.085,
    0.52,
    0.1725,
    0.605,
    0.26,
    0.6925,
    0.345,
    0,
    0.4325,
    0.085,
    0.52,
    0.1725,
    0.605,
    0.26,
    0.6925,
    0.345,
    0,
    0.4325,
    0.085,
    0.52,
    0.1725,
    0.605,
    0.26,
    0.6925,
    0.345,
    0,
    0.4325,
    0.085,
    0.52,
    0.1725,
    0.605,
    0.26,
    0.6925,
    0.345,
    0,
    0.4325,
    0.085,
    0.52,
    0.1725,
    0.605,
    0.26,
    0.6925,
    0.345,
    0,
    0.4325,
    0.085,
    0.52,
    0.1725,
    0.605,
    0.26,
    0.6925,
    0.345
  ],
  "SoftwareVersions": "syngo MR E11",
  "SpacingBetweenSlices": 2,
  "StationName": "BAY4OC",
  "TaskName": "rest",
  "TotalReadoutTime": 0.0597409,
  "TxRefAmp": 269.988,
  "WipMemBlock": "02795b60-98ab-46e1-a3cd-cd2af4bf0d93||Sequence: ve11c/master r/5b0256d+; Dec  9 2016 09:38:51 by eja",
  "dcmmeta_affine": [
    [
      -1.9991341829299927,
      -0.04920681565999985,
      -0.03226831182837486,
      111.59081268310547
    ],
    [
      -0.04195620119571686,
      1.9609607458114624,
      -0.39098915457725525,
      -73.52608489990234
    ],
    [
      -0.04125811159610748,
      0.3901429772377014,
      1.9611440896987915,
      -69.16334533691406
    ],
    [
      0,
      0,
      0,
      1
    ]
  ],
  "dcmmeta_reorient_transform": [
    [
      0,
      -1,
      0,
      103
    ],
    [
      1,
      0,
      0,
      0
    ],
    [
      0,
      0,
      1,
      0
    ],
    [
      0,
      0,
      0,
      1
    ]
  ],
  "dcmmeta_shape": [
    104,
    104,
    72,
    600
  ],
  "dcmmeta_slice_dim": 2,
  "dcmmeta_version": 0.6,
  "time": {
    "samples": {
      "AcquisitionNumber": [
        1,
        2,
        3,
        4,
        5,
        6,
        7,
        8,
        9,
        10,
        11,
        12,
        13,
        14,
        15,
        16,
        17,
        18,
        19,
        20,
        21,
        22,
        23,
        24,
        25,
        26,
        27,
        28,
        29,
        30,
        31,
        32,
        33,
        34,
        35,
        36,
        37,
        38,
        39,
        40,
        41,
        42,
        43,
        44,
        45,
        46,
        47,
        48,
        49,
        50,
        51,
        52,
        53,
        54,
        55,
        56,
        57,
        58,
        59,
        60,
        61,
        62,
        63,
        64,
        65,
        66,
        67,
        68,
        69,
        70,
        71,
        72,
        73,
        74,
        75,
        76,
        77,
        78,
        79,
        80,
        81,
        82,
        83,
        84,
        85,
        86,
        87,
        88,
        89,
        90,
        91,
        92,
        93,
        94,
        95,
        96,
        97,
        98,
        99,
        100,
        101,
        102,
        103,
        104,
        105,
        106,
        107,
        108,
        109,
        110,
        111,
        112,
        113,
        114,
        115,
        116,
        117,
        118,
        119,
        120,
        121,
        122,
        123,
        124,
        125,
        126,
        127,
        128,
        129,
        130,
        131,
        132,
        133,
        134,
        135,
        136,
        137,
        138,
        139,
        140,
        141,
        142,
        143,
        144,
        145,
        146,
        147,
        148,
        149,
        150,
        151,
        152,
        153,
        154,
        155,
        156,
        157,
        158,
        159,
        160,
        161,
        162,
        163,
        164,
        165,
        166,
        167,
        168,
        169,
        170,
        171,
        172,
        173,
        174,
        175,
        176,
        177,
        178,
        179,
        180,
        181,
        182,
        183,
        184,
        185,
        186,
        187,
        188,
        189,
        190,
        191,
        192,
        193,
        194,
        195,
        196,
        197,
        198,
        199,
        200,
        201,
        202,
        203,
        204,
        205,
        206,
        207,
        208,
        209,
        210,
        211,
        212,
        213,
        214,
        215,
        216,
        217,
        218,
        219,
        220,
        221,
        222,
        223,
        224,
        225,
        226,
        227,
        228,
        229,
        230,
        231,
        232,
        233,
        234,
        235,
        236,
        237,
        238,
        239,
        240,
        241,
        242,
        243,
        244,
        245,
        246,
        247,
        248,
        249,
        250,
        251,
        252,
        253,
        254,
        255,
        256,
        257,
        258,
        259,
        260,
        261,
        262,
        263,
        264,
        265,
        266,
        267,
        268,
        269,
        270,
        271,
        272,
        273,
        274,
        275,
        276,
        277,
        278,
        279,
        280,
        281,
        282,
        283,
        284,
        285,
        286,
        287,
        288,
        289,
        290,
        291,
        292,
        293,
        294,
        295,
        296,
        297,
        298,
        299,
        300,
        301,
        302,
        303,
        304,
        305,
        306,
        307,
        308,
        309,
        310,
        311,
        312,
        313,
        314,
        315,
        316,
        317,
        318,
        319,
        320,
        321,
        322,
        323,
        324,
        325,
        326,
        327,
        328,
        329,
        330,
        331,
        332,
        333,
        334,
        335,
        336,
        337,
        338,
        339,
        340,
        341,
        342,
        343,
        344,
        345,
        346,
        347,
        348,
        349,
        350,
        351,
        352,
        353,
        354,
        355,
        356,
        357,
        358,
        359,
        360,
        361,
        362,
        363,
        364,
        365,
        366,
        367,
        368,
        369,
        370,
        371,
        372,
        373,
        374,
        375,
        376,
        377,
        378,
        379,
        380,
        381,
        382,
        383,
        384,
        385,
        386,
        387,
        388,
        389,
        390,
        391,
        392,
        393,
        394,
        395,
        396,
        397,
        398,
        399,
        400,
        401,
        402,
        403,
        404,
        405,
        406,
        407,
        408,
        409,
        410,
        411,
        412,
        413,
        414,
        415,
        416,
        417,
        418,
        419,
        420,
        421,
        422,
        423,
        424,
        425,
        426,
        427,
        428,
        429,
        430,
        431,
        432,
        433,
        434,
        435,
        436,
        437,
        438,
        439,
        440,
        441,
        442,
        443,
        444,
        445,
        446,
        447,
        448,
        449,
        450,
        451,
        452,
        453,
        454,
        455,
        456,
        457,
        458,
        459,
        460,
        461,
        462,
        463,
        464,
        465,
        466,
        467,
        468,
        469,
        470,
        471,
        472,
        473,
        474,
        475,
        476,
        477,
        478,
        479,
        480,
        481,
        482,
        483,
        484,
        485,
        486,
        487,
        488,
        489,
        490,
        491,
        492,
        493,
        494,
        495,
        496,
        497,
        498,
        499,
        500,
        501,
        502,
        503,
        504,
        505,
        506,
        507,
        508,
        509,
        510,
        511,
        512,
        513,
        514,
        515,
        516,
        517,
        518,
        519,
        520,
        521,
        522,
        523,
        524,
        525,
        526,
        527,
        528,
        529,
        530,
        531,
        532,
        533,
        534,
        535,
        536,
        537,
        538,
        539,
        540,
        541,
        542,
        543,
        544,
        545,
        546,
        547,
        548,
        549,
        550,
        551,
        552,
        553,
        554,
        555,
        556,
        557,
        558,
        559,
        560,
        561,
        562,
        563,
        564,
        565,
        566,
        567,
        568,
        569,
        570,
        571,
        572,
        573,
        574,
        575,
        576,
        577,
        578,
        579,
        580,
        581,
        582,
        583,
        584,
        585,
        586,
        587,
        588,
        589,
        590,
        591,
        592,
        593,
        594,
        595,
        596,
        597,
        598,
        599,
        600
      ],
      "AcquisitionTime": [
        "082602.855000",
        "082603.655000",
        "082604.455000",
        "082605.255000",
        "082606.055000",
        "082606.855000",
        "082607.655000",
        "082608.455000",
        "082609.255000",
        "082610.055000",
        "082610.855000",
        "082611.655000",
        "082612.455000",
        "082613.255000",
        "082614.055000",
        "082614.855000",
        "082615.655000",
        "082616.455000",
        "082617.255000",
        "082618.055000",
        "082618.855000",
        "082619.655000",
        "082620.455000",
        "082621.255000",
        "082622.055000",
        "082622.855000",
        "082623.655000",
        "082624.455000",
        "082625.255000",
        "082626.055000",
        "082626.855000",
        "082627.655000",
        "082628.455000",
        "082629.255000",
        "082630.055000",
        "082630.855000",
        "082631.655000",
        "082632.455000",
        "082633.255000",
        "082634.055000",
        "082634.855000",
        "082635.655000",
        "082636.455000",
        "082637.255000",
        "082638.055000",
        "082638.855000",
        "082639.655000",
        "082640.455000",
        "082641.255000",
        "082642.055000",
        "082642.855000",
        "082643.655000",
        "082644.455000",
        "082645.255000",
        "082646.055000",
        "082646.855000",
        "082647.655000",
        "082648.455000",
        "082649.255000",
        "082650.055000",
        "082650.855000",
        "082651.655000",
        "082652.455000",
        "082653.255000",
        "082654.055000",
        "082654.855000",
        "082655.655000",
        "082656.455000",
        "082657.255000",
        "082658.055000",
        "082658.855000",
        "082659.655000",
        "082700.455000",
        "082701.255000",
        "082702.055000",
        "082702.855000",
        "082703.655000",
        "082704.455000",
        "082705.255000",
        "082706.055000",
        "082706.855000",
        "082707.655000",
        "082708.455000",
        "082709.255000",
        "082710.055000",
        "082710.855000",
        "082711.655000",
        "082712.455000",
        "082713.255000",
        "082714.055000",
        "082714.855000",
        "082715.655000",
        "082716.455000",
        "082717.255000",
        "082718.055000",
        "082718.855000",
        "082719.655000",
        "082720.455000",
        "082721.255000",
        "082722.055000",
        "082722.855000",
        "082723.655000",
        "082724.455000",
        "082725.255000",
        "082726.055000",
        "082726.855000",
        "082727.655000",
        "082728.455000",
        "082729.255000",
        "082730.055000",
        "082730.855000",
        "082731.655000",
        "082732.455000",
        "082733.255000",
        "082734.055000",
        "082734.855000",
        "082735.655000",
        "082736.455000",
        "082737.255000",
        "082738.055000",
        "082738.855000",
        "082739.655000",
        "082740.455000",
        "082741.255000",
        "082742.055000",
        "082742.855000",
        "082743.655000",
        "082744.455000",
        "082745.255000",
        "082746.055000",
        "082746.855000",
        "082747.655000",
        "082748.455000",
        "082749.255000",
        "082750.055000",
        "082750.855000",
        "082751.655000",
        "082752.455000",
        "082753.255000",
        "082754.055000",
        "082754.855000",
        "082755.655000",
        "082756.455000",
        "082757.255000",
        "082758.055000",
        "082758.855000",
        "082759.655000",
        "082800.455000",
        "082801.255000",
        "082802.055000",
        "082802.855000",
        "082803.655000",
        "082804.455000",
        "082805.255000",
        "082806.055000",
        "082806.855000",
        "082807.655000",
        "082808.455000",
        "082809.255000",
        "082810.055000",
        "082810.855000",
        "082811.655000",
        "082812.455000",
        "082813.255000",
        "082814.055000",
        "082814.855000",
        "082815.655000",
        "082816.455000",
        "082817.255000",
        "082818.055000",
        "082818.855000",
        "082819.655000",
        "082820.455000",
        "082821.255000",
        "082822.055000",
        "082822.855000",
        "082823.655000",
        "082824.455000",
        "082825.255000",
        "082826.055000",
        "082826.855000",
        "082827.655000",
        "082828.455000",
        "082829.255000",
        "082830.055000",
        "082830.855000",
        "082831.655000",
        "082832.455000",
        "082833.255000",
        "082834.055000",
        "082834.855000",
        "082835.655000",
        "082836.455000",
        "082837.255000",
        "082838.055000",
        "082838.855000",
        "082839.655000",
        "082840.455000",
        "082841.255000",
        "082842.055000",
        "082842.855000",
        "082843.655000",
        "082844.455000",
        "082845.255000",
        "082846.055000",
        "082846.855000",
        "082847.655000",
        "082848.455000",
        "082849.255000",
        "082850.055000",
        "082850.855000",
        "082851.655000",
        "082852.455000",
        "082853.255000",
        "082854.055000",
        "082854.855000",
        "082855.655000",
        "082856.455000",
        "082857.255000",
        "082858.055000",
        "082858.855000",
        "082859.655000",
        "082900.455000",
        "082901.255000",
        "082902.055000",
        "082902.855000",
        "082903.655000",
        "082904.455000",
        "082905.255000",
        "082906.055000",
        "082906.855000",
        "082907.655000",
        "082908.455000",
        "082909.255000",
        "082910.055000",
        "082910.855000",
        "082911.655000",
        "082912.455000",
        "082913.255000",
        "082914.055000",
        "082914.855000",
        "082915.655000",
        "082916.455000",
        "082917.255000",
        "082918.055000",
        "082918.855000",
        "082919.655000",
        "082920.455000",
        "082921.255000",
        "082922.055000",
        "082922.855000",
        "082923.655000",
        "082924.455000",
        "082925.255000",
        "082926.055000",
        "082926.855000",
        "082927.655000",
        "082928.455000",
        "082929.255000",
        "082930.055000",
        "082930.855000",
        "082931.655000",
        "082932.455000",
        "082933.255000",
        "082934.055000",
        "082934.855000",
        "082935.655000",
        "082936.455000",
        "082937.255000",
        "082938.055000",
        "082938.855000",
        "082939.655000",
        "082940.455000",
        "082941.255000",
        "082942.055000",
        "082942.855000",
        "082943.655000",
        "082944.455000",
        "082945.255000",
        "082946.055000",
        "082946.855000",
        "082947.655000",
        "082948.455000",
        "082949.255000",
        "082950.055000",
        "082950.855000",
        "082951.655000",
        "082952.455000",
        "082953.255000",
        "082954.055000",
        "082954.855000",
        "082955.655000",
        "082956.455000",
        "082957.255000",
        "082958.055000",
        "082958.855000",
        "082959.655000",
        "083000.455000",
        "083001.255000",
        "083002.055000",
        "083002.855000",
        "083003.655000",
        "083004.455000",
        "083005.255000",
        "083006.055000",
        "083006.855000",
        "083007.655000",
        "083008.455000",
        "083009.255000",
        "083010.055000",
        "083010.855000",
        "083011.655000",
        "083012.455000",
        "083013.255000",
        "083014.055000",
        "083014.855000",
        "083015.655000",
        "083016.455000",
        "083017.255000",
        "083018.055000",
        "083018.855000",
        "083019.655000",
        "083020.455000",
        "083021.255000",
        "083022.055000",
        "083022.855000",
        "083023.655000",
        "083024.455000",
        "083025.255000",
        "083026.055000",
        "083026.855000",
        "083027.655000",
        "083028.455000",
        "083029.255000",
        "083030.055000",
        "083030.855000",
        "083031.655000",
        "083032.455000",
        "083033.255000",
        "083034.055000",
        "083034.855000",
        "083035.655000",
        "083036.455000",
        "083037.255000",
        "083038.055000",
        "083038.855000",
        "083039.655000",
        "083040.455000",
        "083041.255000",
        "083042.055000",
        "083042.855000",
        "083043.655000",
        "083044.455000",
        "083045.255000",
        "083046.055000",
        "083046.855000",
        "083047.655000",
        "083048.455000",
        "083049.255000",
        "083050.055000",
        "083050.855000",
        "083051.655000",
        "083052.455000",
        "083053.255000",
        "083054.055000",
        "083054.855000",
        "083055.655000",
        "083056.455000",
        "083057.255000",
        "083058.055000",
        "083058.855000",
        "083059.655000",
        "083100.455000",
        "083101.255000",
        "083102.055000",
        "083102.855000",
        "083103.655000",
        "083104.455000",
        "083105.255000",
        "083106.055000",
        "083106.855000",
        "083107.655000",
        "083108.455000",
        "083109.255000",
        "083110.055000",
        "083110.855000",
        "083111.655000",
        "083112.455000",
        "083113.255000",
        "083114.055000",
        "083114.855000",
        "083115.655000",
        "083116.455000",
        "083117.255000",
        "083118.055000",
        "083118.855000",
        "083119.655000",
        "083120.455000",
        "083121.255000",
        "083122.055000",
        "083122.855000",
        "083123.655000",
        "083124.455000",
        "083125.255000",
        "083126.055000",
        "083126.855000",
        "083127.655000",
        "083128.455000",
        "083129.255000",
        "083130.055000",
        "083130.855000",
        "083131.655000",
        "083132.455000",
        "083133.255000",
        "083134.055000",
        "083134.855000",
        "083135.655000",
        "083136.455000",
        "083137.255000",
        "083138.055000",
        "083138.855000",
        "083139.655000",
        "083140.455000",
        "083141.255000",
        "083142.055000",
        "083142.855000",
        "083143.655000",
        "083144.455000",
        "083145.255000",
        "083146.055000",
        "083146.855000",
        "083147.655000",
        "083148.455000",
        "083149.255000",
        "083150.055000",
        "083150.855000",
        "083151.655000",
        "083152.455000",
        "083153.255000",
        "083154.055000",
        "083154.855000",
        "083155.655000",
        "083156.455000",
        "083157.255000",
        "083158.055000",
        "083158.855000",
        "083159.655000",
        "083200.455000",
        "083201.255000",
        "083202.055000",
        "083202.855000",
        "083203.655000",
        "083204.455000",
        "083205.255000",
        "083206.055000",
        "083206.855000",
        "083207.655000",
        "083208.455000",
        "083209.255000",
        "083210.055000",
        "083210.855000",
        "083211.655000",
        "083212.455000",
        "083213.255000",
        "083214.055000",
        "083214.855000",
        "083215.655000",
        "083216.455000",
        "083217.255000",
        "083218.055000",
        "083218.855000",
        "083219.655000",
        "083220.455000",
        "083221.255000",
        "083222.055000",
        "083222.855000",
        "083223.655000",
        "083224.455000",
        "083225.255000",
        "083226.055000",
        "083226.855000",
        "083227.655000",
        "083228.455000",
        "083229.255000",
        "083230.055000",
        "083230.855000",
        "083231.655000",
        "083232.455000",
        "083233.255000",
        "083234.055000",
        "083234.855000",
        "083235.655000",
        "083236.455000",
        "083237.255000",
        "083238.055000",
        "083238.855000",
        "083239.655000",
        "083240.455000",
        "083241.255000",
        "083242.055000",
        "083242.855000",
        "083243.655000",
        "083244.455000",
        "083245.255000",
        "083246.055000",
        "083246.855000",
        "083247.655000",
        "083248.455000",
        "083249.255000",
        "083250.055000",
        "083250.855000",
        "083251.655000",
        "083252.455000",
        "083253.255000",
        "083254.055000",
        "083254.855000",
        "083255.655000",
        "083256.455000",
        "083257.255000",
        "083258.055000",
        "083258.855000",
        "083259.655000",
        "083300.455000",
        "083301.255000",
        "083302.055000",
        "083302.855000",
        "083303.655000",
        "083304.455000",
        "083305.255000",
        "083306.055000",
        "083306.855000",
        "083307.655000",
        "083308.455000",
        "083309.255000",
        "083310.055000",
        "083310.855000",
        "083311.655000",
        "083312.455000",
        "083313.255000",
        "083314.055000",
        "083314.855000",
        "083315.655000",
        "083316.455000",
        "083317.255000",
        "083318.055000",
        "083318.855000",
        "083319.655000",
        "083320.455000",
        "083321.255000",
        "083322.055000",
        "083322.855000",
        "083323.655000",
        "083324.455000",
        "083325.255000",
        "083326.055000",
        "083326.855000",
        "083327.655000",
        "083328.455000",
        "083329.255000",
        "083330.055000",
        "083330.855000",
        "083331.655000",
        "083332.455000",
        "083333.255000",
        "083334.055000",
        "083334.855000",
        "083335.655000",
        "083336.455000",
        "083337.255000",
        "083338.055000",
        "083338.855000",
        "083339.655000",
        "083340.455000",
        "083341.255000",
        "083342.055000",
        "083342.855000",
        "083343.655000",
        "083344.455000",
        "083345.255000",
        "083346.055000",
        "083346.855000",
        "083347.655000",
        "083348.455000",
        "083349.255000",
        "083350.055000",
        "083350.855000",
        "083351.655000",
        "083352.455000",
        "083353.255000",
        "083354.055000",
        "083354.855000",
        "083355.655000",
        "083356.455000",
        "083357.255000",
        "083358.055000",
        "083358.855000",
        "083359.655000",
        "083400.455000",
        "083401.255000",
        "083402.055000"
      ],
      "ContentTime": [
        "082658.854000",
        "082658.858000",
        "082658.861000",
        "082658.864000",
        "082658.867000",
        "082658.870000",
        "082658.873000",
        "082658.879000",
        "082658.882000",
        "082658.884000",
        "082658.887000",
        "082658.891000",
        "082658.894000",
        "082658.896000",
        "082658.900000",
        "082658.904000",
        "082658.907000",
        "082658.910000",
        "082658.914000",
        "082658.918000",
        "082658.921000",
        "082658.927000",
        "082658.930000",
        "082658.932000",
        "082658.952000",
        "082658.957000",
        "082658.960000",
        "082658.963000",
        "082658.966000",
        "082658.970000",
        "082658.973000",
        "082658.976000",
        "082658.979000",
        "082658.982000",
        "082658.985000",
        "082658.988000",
        "082658.991000",
        "082658.994000",
        "082658.997000",
        "082659.001000",
        "082659.004000",
        "082659.008000",
        "082659.010000",
        "082659.013000",
        "082659.016000",
        "082659.020000",
        "082659.023000",
        "082659.026000",
        "082659.029000",
        "082659.033000",
        "082659.036000",
        "082659.039000",
        "082659.042000",
        "082659.045000",
        "082659.048000",
        "082659.051000",
        "082659.054000",
        "082659.057000",
        "082659.060000",
        "082659.063000",
        "082659.066000",
        "082659.069000",
        "082659.072000",
        "082659.075000",
        "082659.077000",
        "082659.080000",
        "082659.083000",
        "082718.823000",
        "082718.826000",
        "082718.829000",
        "082718.832000",
        "082718.835000",
        "082718.838000",
        "082718.841000",
        "082718.844000",
        "082718.847000",
        "082718.850000",
        "082718.853000",
        "082718.856000",
        "082718.859000",
        "082718.862000",
        "082718.865000",
        "082718.868000",
        "082718.871000",
        "082718.874000",
        "082718.877000",
        "082718.880000",
        "082718.889000",
        "082718.893000",
        "082718.896000",
        "082718.899000",
        "082718.901000",
        "082718.905000",
        "082718.908000",
        "082738.823000",
        "082738.826000",
        "082738.829000",
        "082738.832000",
        "082738.836000",
        "082738.839000",
        "082738.842000",
        "082738.845000",
        "082738.848000",
        "082738.851000",
        "082738.854000",
        "082738.857000",
        "082738.860000",
        "082738.863000",
        "082738.866000",
        "082738.869000",
        "082738.872000",
        "082738.875000",
        "082738.878000",
        "082738.881000",
        "082738.884000",
        "082738.887000",
        "082738.890000",
        "082738.893000",
        "082738.896000",
        "082758.823000",
        "082758.826000",
        "082758.829000",
