{
  "AcquisitionMatrixPE": 104,
  "AcquisitionNumber": 1,
  "AcquisitionTime": "08:23:13.080000",
  "BandwidthPerPixelPhaseEncode": 16.578,
  "BaseResolution": 104,
  "BodyPartExamined": "BRAIN",
  "CoilCombinationMethod": "Sum of Squares",
  "ConsistencyInfo": "N4_VE11C_LATEST_20160120",
  "ConversionSoftware": "dcm2niix",
  "ConversionSoftwareVersion": "v1.0.20220720",
  "DerivedVendorReportedEchoSpacing": 0.000580009,
  "DeviceSerialNumber": "67026",
  "DwellTime": 2.1e-06,
  "EchoTime": 0.037,
  "EchoTrainLength": 104,
  "EffectiveEchoSpacing": 0.000580009,
  "FlipAngle": 52,
  "HeudiconvVersion": "0.11.4",
  "ImageComments": "Unaliased MB8/PE3/LB",
  "ImageOrientationPatientDICOM": [
    0.999932,
    0.0083806,
    0.00812791,
    -0.00366497,
    0.886342,
    -0.463017
  ],
  "ImageOrientationText": "Tra>Cor(-27.6)>Sag(0.6)",
  "ImageType": [
    "ORIGINAL",
    "PRIMARY",
    "M",
    "MB",
    "ND",
    "MOSAIC"
  ],
  "ImagingFrequency": 123.221,
  "InPlanePhaseEncodingDirectionDICOM": "COL",
  "InstitutionAddress": "13th St. 149,Charlestown,MA,US,02129",
  "InstitutionName": "Martinos Center Bay 4 Prisma",
  "InstitutionalDepartmentName": "Martinos Center",
  "MRAcquisitionType": "2D",
  "MagneticFieldStrength": 3,
  "Manufacturer": "Siemens",
  "ManufacturersModelName": "Prisma_fit",
  "MatrixCoilMode": "SENSE",
  "Modality": "MR",
  "MultibandAccelerationFactor": 8,
  "NonlinearGradientCorrection": false,
  "PartialFourier": 1,
  "PatientPosition": "HFS",
  "PercentPhaseFOV": 100,
  "PercentSampling": 100,
  "PhaseEncodingDirection": "j-",
  "PhaseEncodingSteps": 104,
  "PhaseResolution": 1,
  "PixelBandwidth": 2290,
  "ProcedureStepDescription": "INVESTIGATORS^Greve",
  "ProtocolName": "rfMRI_REST_AP",
  "PulseSequenceDetails": "%CustomerSeq%\\hcp_mbep2d_bold",
  "ReceiveCoilActiveElements": "HEA;HEP",
  "ReceiveCoilName": "Head_32",
  "ReconMatrixPE": 104,
  "RepetitionTime": 0.8,
  "SAR": 0.0761663,
  "ScanOptions": "FS\\EXT",
  "ScanningSequence": "EP",
  "SequenceName": "epfid2d1_104",
  "SequenceVariant": "SK\\SS",
  "SeriesDescription": "rfMRI_REST_AP",
  "SeriesNumber": 19,
  "ShimSetting": [
    -1277,
    -10350,
    -10245,
    337,
    36,
    66,
    -150,
    0
  ],
  "SliceThickness": 2,
  "SliceTiming": [
    0,
    0.435,
    0.0875,
    0.52,
    0.175,
    0.6075,
    0.26,
    0.695,
    0.3475,
    0,
    0.435,
    0.0875,
    0.52,
    0.175,
    0.6075,
    0.26,
    0.695,
    0.3475,
    0,
    0.435,
    0.0875,
    0.52,
    0.175,
    0.6075,
    0.26,
    0.695,
    0.3475,
    0,
    0.435,
    0.0875,
    0.52,
    0.175,
    0.6075,
    0.26,
    0.695,
    0.3475,
    0,
    0.435,
    0.0875,
    0.52,
    0.175,
    0.6075,
    0.26,
    0.695,
    0.3475,
    0,
    0.435,
    0.0875,
    0.52,
    0.175,
    0.6075,
    0.26,
    0.695,
    0.3475,
    0,
    0.435,
    0.0875,
    0.52,
    0.175,
    0.6075,
    0.26,
    0.695,
    0.3475,
    0,
    0.435,
    0.0875,
    0.52,
    0.175,
    0.6075,
    0.26,
    0.695,
    0.3475
  ],
  "SoftwareVersions": "syngo MR E11",
  "SpacingBetweenSlices": 2,
  "StationName": "BAY4OC",
  "TaskName": "rest",
  "TotalReadoutTime": 0.0597409,
  "TxRefAmp": 272.6,
  "WipMemBlock": "85851538-3645-4285-8dd8-6ab2dd96889f||Sequence: ve11c/master r/5b0256d+; Dec  9 2016 09:38:51 by eja",
  "dcmmeta_affine": [
    [
      -1.9998637437820435,
      -0.007329936139285564,
      0.02216893434524536,
      104.18864440917969
    ],
    [
      -0.01676119863986969,
      1.7726839780807495,
      -0.9259107112884521,
      -42.38532257080078
    ],
    [
      0.016255823895335197,
      0.9260333776473999,
      1.7726246118545532,
      -128.43032836914062
    ],
    [
      0,
      0,
      0,
      1
    ]
  ],
  "dcmmeta_reorient_transform": [
    [
      0,
      -1,
      0,
      103
    ],
    [
      1,
      0,
      0,
      0
    ],
    [
      0,
      0,
      1,
      0
    ],
    [
      0,
      0,
      0,
      1
    ]
  ],
  "dcmmeta_shape": [
    104,
    104,
    72,
    600
  ],
  "dcmmeta_slice_dim": 2,
  "dcmmeta_version": 0.6,
  "time": {
    "samples": {
      "AcquisitionNumber": [
        1,
        2,
        3,
        4,
        5,
        6,
        7,
        8,
        9,
        10,
        11,
        12,
        13,
        14,
        15,
        16,
        17,
        18,
        19,
        20,
        21,
        22,
        23,
        24,
        25,
        26,
        27,
        28,
        29,
        30,
        31,
        32,
        33,
        34,
        35,
        36,
        37,
        38,
        39,
        40,
        41,
        42,
        43,
        44,
        45,
        46,
        47,
        48,
        49,
        50,
        51,
        52,
        53,
        54,
        55,
        56,
        57,
        58,
        59,
        60,
        61,
        62,
        63,
        64,
        65,
        66,
        67,
        68,
        69,
        70,
        71,
        72,
        73,
        74,
        75,
        76,
        77,
        78,
        79,
        80,
        81,
        82,
        83,
        84,
        85,
        86,
        87,
        88,
        89,
        90,
        91,
        92,
        93,
        94,
        95,
        96,
        97,
        98,
        99,
        100,
        101,
        102,
        103,
        104,
        105,
        106,
        107,
        108,
        109,
        110,
        111,
        112,
        113,
        114,
        115,
        116,
        117,
        118,
        119,
        120,
        121,
        122,
        123,
        124,
        125,
        126,
        127,
        128,
        129,
        130,
        131,
        132,
        133,
        134,
        135,
        136,
        137,
        138,
        139,
        140,
        141,
        142,
        143,
        144,
        145,
        146,
        147,
        148,
        149,
        150,
        151,
        152,
        153,
        154,
        155,
        156,
        157,
        158,
        159,
        160,
        161,
        162,
        163,
        164,
        165,
        166,
        167,
        168,
        169,
        170,
        171,
        172,
        173,
        174,
        175,
        176,
        177,
        178,
        179,
        180,
        181,
        182,
        183,
        184,
        185,
        186,
        187,
        188,
        189,
        190,
        191,
        192,
        193,
        194,
        195,
        196,
        197,
        198,
        199,
        200,
        201,
        202,
        203,
        204,
        205,
        206,
        207,
        208,
        209,
        210,
        211,
        212,
        213,
        214,
        215,
        216,
        217,
        218,
        219,
        220,
        221,
        222,
        223,
        224,
        225,
        226,
        227,
        228,
        229,
        230,
        231,
        232,
        233,
        234,
        235,
        236,
        237,
        238,
        239,
        240,
        241,
        242,
        243,
        244,
        245,
        246,
        247,
        248,
        249,
        250,
        251,
        252,
        253,
        254,
        255,
        256,
        257,
        258,
        259,
        260,
        261,
        262,
        263,
        264,
        265,
        266,
        267,
        268,
        269,
        270,
        271,
        272,
        273,
        274,
        275,
        276,
        277,
        278,
        279,
        280,
        281,
        282,
        283,
        284,
        285,
        286,
        287,
        288,
        289,
        290,
        291,
        292,
        293,
        294,
        295,
        296,
        297,
        298,
        299,
        300,
        301,
        302,
        303,
        304,
        305,
        306,
        307,
        308,
        309,
        310,
        311,
        312,
        313,
        314,
        315,
        316,
        317,
        318,
        319,
        320,
        321,
        322,
        323,
        324,
        325,
        326,
        327,
        328,
        329,
        330,
        331,
        332,
        333,
        334,
        335,
        336,
        337,
        338,
        339,
        340,
        341,
        342,
        343,
        344,
        345,
        346,
        347,
        348,
        349,
        350,
        351,
        352,
        353,
        354,
        355,
        356,
        357,
        358,
        359,
        360,
        361,
        362,
        363,
        364,
        365,
        366,
        367,
        368,
        369,
        370,
        371,
        372,
        373,
        374,
        375,
        376,
        377,
        378,
        379,
        380,
        381,
        382,
        383,
        384,
        385,
        386,
        387,
        388,
        389,
        390,
        391,
        392,
        393,
        394,
        395,
        396,
        397,
        398,
        399,
        400,
        401,
        402,
        403,
        404,
        405,
        406,
        407,
        408,
        409,
        410,
        411,
        412,
        413,
        414,
        415,
        416,
        417,
        418,
        419,
        420,
        421,
        422,
        423,
        424,
        425,
        426,
        427,
        428,
        429,
        430,
        431,
        432,
        433,
        434,
        435,
        436,
        437,
        438,
        439,
        440,
        441,
        442,
        443,
        444,
        445,
        446,
        447,
        448,
        449,
        450,
        451,
        452,
        453,
        454,
        455,
        456,
        457,
        458,
        459,
        460,
        461,
        462,
        463,
        464,
        465,
        466,
        467,
        468,
        469,
        470,
        471,
        472,
        473,
        474,
        475,
        476,
        477,
        478,
        479,
        480,
        481,
        482,
        483,
        484,
        485,
        486,
        487,
        488,
        489,
        490,
        491,
        492,
        493,
        494,
        495,
        496,
        497,
        498,
        499,
        500,
        501,
        502,
        503,
        504,
        505,
        506,
        507,
        508,
        509,
        510,
        511,
        512,
        513,
        514,
        515,
        516,
        517,
        518,
        519,
        520,
        521,
        522,
        523,
        524,
        525,
        526,
        527,
        528,
        529,
        530,
        531,
        532,
        533,
        534,
        535,
        536,
        537,
        538,
        539,
        540,
        541,
        542,
        543,
        544,
        545,
        546,
        547,
        548,
        549,
        550,
        551,
        552,
        553,
        554,
        555,
        556,
        557,
        558,
        559,
        560,
        561,
        562,
        563,
        564,
        565,
        566,
        567,
        568,
        569,
        570,
        571,
        572,
        573,
        574,
        575,
        576,
        577,
        578,
        579,
        580,
        581,
        582,
        583,
        584,
        585,
        586,
        587,
        588,
        589,
        590,
        591,
        592,
        593,
        594,
        595,
        596,
        597,
        598,
        599,
        600
      ],
      "AcquisitionTime": [
        "082313.080000",
        "082313.880000",
        "082314.680000",
        "082315.480000",
        "082316.280000",
        "082317.080000",
        "082317.880000",
        "082318.680000",
        "082319.480000",
        "082320.280000",
        "082321.080000",
        "082321.880000",
        "082322.680000",
        "082323.480000",
        "082324.280000",
        "082325.080000",
        "082325.880000",
        "082326.680000",
        "082327.480000",
        "082328.280000",
        "082329.080000",
        "082329.880000",
        "082330.680000",
        "082331.480000",
        "082332.280000",
        "082333.080000",
        "082333.880000",
        "082334.680000",
        "082335.480000",
        "082336.280000",
        "082337.080000",
        "082337.880000",
        "082338.680000",
        "082339.480000",
        "082340.280000",
        "082341.080000",
        "082341.880000",
        "082342.680000",
        "082343.480000",
        "082344.280000",
        "082345.080000",
        "082345.880000",
        "082346.680000",
        "082347.480000",
        "082348.280000",
        "082349.080000",
        "082349.880000",
        "082350.680000",
        "082351.480000",
        "082352.280000",
        "082353.080000",
        "082353.880000",
        "082354.680000",
        "082355.480000",
        "082356.280000",
        "082357.080000",
        "082357.880000",
        "082358.680000",
        "082359.480000",
        "082400.280000",
        "082401.080000",
        "082401.880000",
        "082402.680000",
        "082403.480000",
        "082404.280000",
        "082405.080000",
        "082405.880000",
        "082406.680000",
        "082407.480000",
        "082408.280000",
        "082409.080000",
        "082409.880000",
        "082410.680000",
        "082411.480000",
        "082412.280000",
        "082413.080000",
        "082413.880000",
        "082414.680000",
        "082415.480000",
        "082416.280000",
        "082417.080000",
        "082417.880000",
        "082418.680000",
        "082419.480000",
        "082420.280000",
        "082421.080000",
        "082421.880000",
        "082422.680000",
        "082423.480000",
        "082424.280000",
        "082425.080000",
        "082425.880000",
        "082426.680000",
        "082427.480000",
        "082428.280000",
        "082429.080000",
        "082429.880000",
        "082430.680000",
        "082431.480000",
        "082432.280000",
        "082433.080000",
        "082433.880000",
        "082434.680000",
        "082435.480000",
        "082436.280000",
        "082437.080000",
        "082437.880000",
        "082438.680000",
        "082439.480000",
        "082440.280000",
        "082441.080000",
        "082441.880000",
        "082442.680000",
        "082443.480000",
        "082444.280000",
        "082445.080000",
        "082445.880000",
        "082446.680000",
        "082447.480000",
        "082448.280000",
        "082449.080000",
        "082449.880000",
        "082450.680000",
        "082451.480000",
        "082452.280000",
        "082453.080000",
        "082453.880000",
        "082454.680000",
        "082455.480000",
        "082456.280000",
        "082457.080000",
        "082457.880000",
        "082458.680000",
        "082459.480000",
        "082500.280000",
        "082501.080000",
        "082501.880000",
        "082502.680000",
        "082503.480000",
        "082504.280000",
        "082505.080000",
        "082505.880000",
        "082506.680000",
        "082507.480000",
        "082508.280000",
        "082509.080000",
        "082509.880000",
        "082510.680000",
        "082511.480000",
        "082512.280000",
        "082513.080000",
        "082513.880000",
        "082514.680000",
        "082515.480000",
        "082516.280000",
        "082517.080000",
        "082517.880000",
        "082518.680000",
        "082519.480000",
        "082520.280000",
        "082521.080000",
        "082521.880000",
        "082522.680000",
        "082523.480000",
        "082524.280000",
        "082525.080000",
        "082525.880000",
        "082526.680000",
        "082527.480000",
        "082528.280000",
        "082529.080000",
        "082529.880000",
        "082530.680000",
        "082531.480000",
        "082532.280000",
        "082533.080000",
        "082533.880000",
        "082534.680000",
        "082535.480000",
        "082536.280000",
        "082537.080000",
        "082537.880000",
        "082538.680000",
        "082539.480000",
        "082540.280000",
        "082541.080000",
        "082541.880000",
        "082542.680000",
        "082543.480000",
        "082544.280000",
        "082545.080000",
        "082545.880000",
        "082546.680000",
        "082547.480000",
        "082548.280000",
        "082549.080000",
        "082549.880000",
        "082550.680000",
        "082551.480000",
        "082552.280000",
        "082553.080000",
        "082553.880000",
        "082554.680000",
        "082555.480000",
        "082556.280000",
        "082557.080000",
        "082557.880000",
        "082558.680000",
        "082559.480000",
        "082600.280000",
        "082601.080000",
        "082601.880000",
        "082602.680000",
        "082603.480000",
        "082604.280000",
        "082605.080000",
        "082605.880000",
        "082606.680000",
        "082607.480000",
        "082608.280000",
        "082609.080000",
        "082609.880000",
        "082610.680000",
        "082611.480000",
        "082612.280000",
        "082613.080000",
        "082613.880000",
        "082614.680000",
        "082615.480000",
        "082616.280000",
        "082617.080000",
        "082617.880000",
        "082618.680000",
        "082619.480000",
        "082620.280000",
        "082621.080000",
        "082621.880000",
        "082622.680000",
        "082623.480000",
        "082624.280000",
        "082625.080000",
        "082625.880000",
        "082626.680000",
        "082627.480000",
        "082628.280000",
        "082629.080000",
        "082629.880000",
        "082630.680000",
        "082631.480000",
        "082632.280000",
        "082633.080000",
        "082633.880000",
        "082634.680000",
        "082635.480000",
        "082636.280000",
        "082637.080000",
        "082637.880000",
        "082638.680000",
        "082639.480000",
        "082640.280000",
        "082641.080000",
        "082641.880000",
        "082642.680000",
        "082643.480000",
        "082644.280000",
        "082645.080000",
        "082645.880000",
        "082646.680000",
        "082647.480000",
        "082648.280000",
        "082649.080000",
        "082649.880000",
        "082650.680000",
        "082651.480000",
        "082652.280000",
        "082653.080000",
        "082653.880000",
        "082654.680000",
        "082655.480000",
        "082656.280000",
        "082657.080000",
        "082657.880000",
        "082658.680000",
        "082659.480000",
        "082700.280000",
        "082701.080000",
        "082701.880000",
        "082702.680000",
        "082703.480000",
        "082704.280000",
        "082705.080000",
        "082705.880000",
        "082706.680000",
        "082707.480000",
        "082708.280000",
        "082709.080000",
        "082709.880000",
        "082710.680000",
        "082711.480000",
        "082712.280000",
        "082713.080000",
        "082713.880000",
        "082714.680000",
        "082715.480000",
        "082716.280000",
        "082717.080000",
        "082717.880000",
        "082718.680000",
        "082719.480000",
        "082720.280000",
        "082721.080000",
        "082721.880000",
        "082722.680000",
        "082723.480000",
        "082724.280000",
        "082725.080000",
        "082725.880000",
        "082726.680000",
        "082727.480000",
        "082728.280000",
        "082729.080000",
        "082729.880000",
        "082730.680000",
        "082731.480000",
        "082732.280000",
        "082733.080000",
        "082733.880000",
        "082734.680000",
        "082735.480000",
        "082736.280000",
        "082737.080000",
        "082737.880000",
        "082738.680000",
        "082739.480000",
        "082740.280000",
        "082741.080000",
        "082741.880000",
        "082742.680000",
        "082743.480000",
        "082744.280000",
        "082745.080000",
        "082745.880000",
        "082746.680000",
        "082747.480000",
        "082748.280000",
        "082749.080000",
        "082749.880000",
        "082750.680000",
        "082751.480000",
        "082752.280000",
        "082753.080000",
        "082753.880000",
        "082754.680000",
        "082755.480000",
        "082756.280000",
        "082757.080000",
        "082757.880000",
        "082758.680000",
        "082759.480000",
        "082800.280000",
        "082801.080000",
        "082801.880000",
        "082802.680000",
        "082803.480000",
        "082804.280000",
        "082805.080000",
        "082805.880000",
        "082806.680000",
        "082807.480000",
        "082808.280000",
        "082809.080000",
        "082809.880000",
        "082810.680000",
        "082811.480000",
        "082812.280000",
        "082813.080000",
        "082813.880000",
        "082814.680000",
        "082815.480000",
        "082816.280000",
        "082817.080000",
        "082817.880000",
        "082818.680000",
        "082819.480000",
        "082820.280000",
        "082821.080000",
        "082821.880000",
        "082822.680000",
        "082823.480000",
        "082824.280000",
        "082825.080000",
        "082825.880000",
        "082826.680000",
        "082827.480000",
        "082828.280000",
        "082829.080000",
        "082829.880000",
        "082830.680000",
        "082831.480000",
        "082832.280000",
        "082833.080000",
        "082833.880000",
        "082834.680000",
        "082835.480000",
        "082836.280000",
        "082837.080000",
        "082837.880000",
        "082838.680000",
        "082839.480000",
        "082840.280000",
        "082841.080000",
        "082841.880000",
        "082842.680000",
        "082843.480000",
        "082844.280000",
        "082845.080000",
        "082845.880000",
        "082846.680000",
        "082847.480000",
        "082848.280000",
        "082849.080000",
        "082849.880000",
        "082850.680000",
        "082851.480000",
        "082852.280000",
        "082853.080000",
        "082853.880000",
        "082854.680000",
        "082855.480000",
        "082856.280000",
        "082857.080000",
        "082857.880000",
        "082858.680000",
        "082859.480000",
        "082900.280000",
        "082901.080000",
        "082901.880000",
        "082902.680000",
        "082903.480000",
        "082904.280000",
        "082905.080000",
        "082905.880000",
        "082906.680000",
        "082907.480000",
        "082908.280000",
        "082909.080000",
        "082909.880000",
        "082910.680000",
        "082911.480000",
        "082912.280000",
        "082913.080000",
        "082913.880000",
        "082914.680000",
        "082915.480000",
        "082916.280000",
        "082917.080000",
        "082917.880000",
        "082918.680000",
        "082919.480000",
        "082920.280000",
        "082921.080000",
        "082921.880000",
        "082922.680000",
        "082923.480000",
        "082924.280000",
        "082925.080000",
        "082925.880000",
        "082926.680000",
        "082927.480000",
        "082928.280000",
        "082929.080000",
        "082929.880000",
        "082930.680000",
        "082931.480000",
        "082932.280000",
        "082933.080000",
        "082933.880000",
        "082934.680000",
        "082935.480000",
        "082936.280000",
        "082937.080000",
        "082937.880000",
        "082938.680000",
        "082939.480000",
        "082940.280000",
        "082941.080000",
        "082941.880000",
        "082942.680000",
        "082943.480000",
        "082944.280000",
        "082945.080000",
        "082945.880000",
        "082946.680000",
        "082947.480000",
        "082948.280000",
        "082949.080000",
        "082949.880000",
        "082950.680000",
        "082951.480000",
        "082952.280000",
        "082953.080000",
        "082953.880000",
        "082954.680000",
        "082955.480000",
        "082956.280000",
        "082957.080000",
        "082957.880000",
        "082958.680000",
        "082959.480000",
        "083000.280000",
        "083001.080000",
        "083001.880000",
        "083002.680000",
        "083003.480000",
        "083004.280000",
        "083005.080000",
        "083005.880000",
        "083006.680000",
        "083007.480000",
        "083008.280000",
        "083009.080000",
        "083009.880000",
        "083010.680000",
        "083011.480000",
        "083012.280000",
        "083013.080000",
        "083013.880000",
        "083014.680000",
        "083015.480000",
        "083016.280000",
        "083017.080000",
        "083017.880000",
        "083018.680000",
        "083019.480000",
        "083020.280000",
        "083021.080000",
        "083021.880000",
        "083022.680000",
        "083023.480000",
        "083024.280000",
        "083025.080000",
        "083025.880000",
        "083026.680000",
        "083027.480000",
        "083028.280000",
        "083029.080000",
        "083029.880000",
        "083030.680000",
        "083031.480000",
        "083032.280000",
        "083033.080000",
        "083033.880000",
        "083034.680000",
        "083035.480000",
        "083036.280000",
        "083037.080000",
        "083037.880000",
        "083038.680000",
        "083039.480000",
        "083040.280000",
        "083041.080000",
        "083041.880000",
        "083042.680000",
        "083043.480000",
        "083044.280000",
        "083045.080000",
        "083045.880000",
        "083046.680000",
        "083047.480000",
        "083048.280000",
        "083049.080000",
        "083049.880000",
        "083050.680000",
        "083051.480000",
        "083052.280000",
        "083053.080000",
        "083053.880000",
        "083054.680000",
        "083055.480000",
        "083056.280000",
        "083057.080000",
        "083057.880000",
        "083058.680000",
        "083059.480000",
        "083100.280000",
        "083101.080000",
        "083101.880000",
        "083102.680000",
        "083103.480000",
        "083104.280000",
        "083105.080000",
        "083105.880000",
        "083106.680000",
        "083107.480000",
        "083108.280000",
        "083109.080000",
        "083109.880000",
        "083110.680000",
        "083111.480000",
        "083112.280000"
      ],
      "ContentTime": [
        "082352.987000",
        "082353.000000",
        "082353.002000",
        "082353.005000",
        "082353.008000",
        "082353.011000",
        "082353.014000",
        "082353.017000",
        "082353.019000",
        "082353.022000",
        "082353.034000",
        "082353.037000",
        "082353.039000",
        "082353.042000",
        "082353.052000",
        "082353.054000",
        "082353.057000",
        "082353.060000",
        "082353.063000",
        "082353.066000",
        "082353.069000",
        "082353.072000",
        "082353.075000",
        "082353.077000",
        "082353.080000",
        "082353.083000",
        "082353.086000",
        "082353.089000",
        "082353.091000",
        "082353.094000",
        "082412.954000",
        "082412.957000",
        "082412.973000",
        "082412.975000",
        "082412.978000",
        "082412.981000",
        "082412.984000",
        "082412.987000",
        "082412.989000",
        "082412.992000",
        "082412.995000",
        "082412.998000",
        "082413.002000",
        "082413.005000",
        "082413.008000",
        "082413.010000",
        "082413.013000",
        "082413.016000",
        "082413.019000",
        "082413.022000",
        "082413.025000",
        "082413.034000",
        "082413.037000",
        "082413.040000",
        "082413.043000",
        "082413.046000",
        "082413.049000",
        "082413.051000",
        "082413.054000",
        "082413.057000",
        "082413.060000",
        "082413.063000",
        "082413.066000",
        "082413.068000",
        "082413.071000",
        "082413.074000",
        "082413.077000",
        "082413.080000",
        "082413.083000",
        "082413.086000",
        "082413.088000",
        "082413.091000",
        "082413.094000",
        "082413.097000",
        "082432.954000",
        "082432.957000",
        "082432.960000",
        "082432.963000",
        "082432.966000",
        "082432.968000",
        "082432.971000",
        "082432.974000",
        "082432.977000",
        "082432.980000",
        "082432.983000",
        "082432.985000",
        "082432.988000",
        "082432.991000",
        "082432.994000",
        "082432.997000",
        "082433.001000",
        "082433.004000",
        "082433.007000",
        "082433.009000",
        "082433.012000",
        "082433.015000",
        "082433.018000",
        "082433.021000",
        "082433.024000",
        "082452.954000",
        "082452.957000",
        "082452.960000",
        "082452.963000",
        "082452.966000",
        "082452.969000",
        "082452.972000",
        "082452.974000",
        "082452.977000",
        "082452.980000",
        "082452.983000",
        "082452.986000",
        "082452.989000",
        "082452.992000",
        "082452.995000",
        "082452.998000",
        "082453.003000",
        "082453.006000",
        "082453.009000",
        "082453.012000",
        "082453.015000",
        "082453.018000",
        "082453.021000",
