{
  "AcquisitionMatrixPE": 140,
  "AcquisitionNumber": 1,
  "AcquisitionTime": "09:02:29.915000",
  "BandwidthPerPixelPhaseEncode": 10.352,
  "BaseResolution": 140,
  "BodyPartExamined": "BRAIN",
  "CoilCombinationMethod": "Sum of Squares",
  "ConsistencyInfo": "N4_VE11C_LATEST_20160120",
  "ConversionSoftware": "dcm2niix",
  "ConversionSoftwareVersion": "v1.0.20220720",
  "DerivedVendorReportedEchoSpacing": 0.000689998,
  "DeviceSerialNumber": "67026",
  "DiffusionScheme": "Monopolar",
  "DwellTime": 2.1e-06,
  "EchoTime": 0.0892,
  "EchoTrainLength": 105,
  "EffectiveEchoSpacing": 0.000689998,
  "FlipAngle": 78,
  "HeudiconvVersion": "0.11.4",
  "ImageComments": "Unaliased MB4/PE3/LB SENSE1",
  "ImageOrientationPatientDICOM": [
    0.999939,
    0.00870909,
    0.00677037,
    -0.00349044,
    0.832012,
    -0.554746
  ],
  "ImageOrientationText": "Tra>Cor(-33.7)>Sag(0.6)",
  "ImageType": [
    "ORIGINAL",
    "PRIMARY",
    "DIFFUSION",
    "NONE",
    "MB",
    "ND",
    "MOSAIC"
  ],
  "ImagingFrequency": 123.16,
  "InPlanePhaseEncodingDirectionDICOM": "COL",
  "InstitutionAddress": "13th St. 149,Charlestown,MA,US,02129",
  "InstitutionName": "MGH PrismaFit-Bay4",
  "InstitutionalDepartmentName": "Martinos Center",
  "MRAcquisitionType": "2D",
  "MagneticFieldStrength": 3,
  "Manufacturer": "Siemens",
  "ManufacturersModelName": "Prisma_fit",
  "MatrixCoilMode": "SENSE",
  "Modality": "MR",
  "MultibandAccelerationFactor": 4,
  "NonlinearGradientCorrection": false,
  "PartialFourier": 0.75,
  "PatientPosition": "HFS",
  "PercentPhaseFOV": 100,
  "PercentSampling": 100,
  "PhaseEncodingDirection": "j-",
  "PhaseEncodingSteps": 105,
  "PhaseResolution": 1,
  "PixelBandwidth": 1700,
  "ProcedureStepDescription": "INVESTIGATORS^Greve",
  "ProtocolName": "dMRI_dir98_AP",
  "PulseSequenceDetails": "%CustomerSeq%\\hcp_mbep2d_diff",
  "ReceiveCoilActiveElements": "HEA;HEP",
  "ReceiveCoilName": "Head_32",
  "ReconMatrixPE": 140,
  "RepetitionTime": 3.23,
  "SAR": 0.167144,
  "ScanOptions": "PFP\\EXT",
  "ScanningSequence": "EP",
  "SequenceName": "ep_b5#1",
  "SequenceVariant": "SK\\SS",
  "SeriesDescription": "dMRI_dir98_AP",
  "SeriesNumber": 42,
  "ShimSetting": [
    -1197,
    -10496,
    -10150,
    413,
    151,
    230,
    -67,
    -30
  ],
  "SliceThickness": 1.5,
  "SliceTiming": [
    0,
    1.675,
    0.1375,
    1.8125,
    0.2775,
    1.9525,
    0.4175,
    2.0925,
    0.5575,
    2.2325,
    0.6975,
    2.3725,
    0.8375,
    2.51,
    0.975,
    2.65,
    1.115,
    2.79,
    1.255,
    2.93,
    1.395,
    3.07,
    1.535,
    0,
    1.675,
    0.1375,
    1.8125,
    0.2775,
    1.9525,
    0.4175,
    2.0925,
    0.5575,
    2.2325,
    0.6975,
    2.3725,
    0.8375,
    2.51,
    0.975,
    2.65,
    1.115,
    2.79,
    1.255,
    2.93,
    1.395,
    3.07,
    1.535,
    0,
    1.675,
    0.1375,
    1.8125,
    0.2775,
    1.9525,
    0.4175,
    2.0925,
    0.5575,
    2.2325,
    0.6975,
    2.3725,
    0.8375,
    2.51,
    0.975,
    2.65,
    1.115,
    2.79,
    1.255,
    2.93,
    1.395,
    3.07,
    1.535,
    0,
    1.675,
    0.1375,
    1.8125,
    0.2775,
    1.9525,
    0.4175,
    2.0925,
    0.5575,
    2.2325,
    0.6975,
    2.3725,
    0.8375,
    2.51,
    0.975,
    2.65,
    1.115,
    2.79,
    1.255,
    2.93,
    1.395,
    3.07,
    1.535
  ],
  "SoftwareVersions": "syngo MR E11",
  "SpacingBetweenSlices": 1.5,
  "StationName": "BAY4OC",
  "TotalReadoutTime": 0.0959097,
  "TxRefAmp": 282.582,
  "WipMemBlock": "5c45ed07-2d19-41a1-a0dc-26c8898a0e94||Sequence: ve11c/master r/5b0256d+; Dec  9 2016 09:48:43 by eja",
  "dcmmeta_affine": [
    [
      -1.499908685684204,
      -0.005235658958554268,
      0.015696551650762558,
      105.13574981689453
    ],
    [
      -0.01306363008916378,
      1.2480182647705078,
      -0.8320333957672119,
      -39.34519958496094
    ],
    [
      0.010155560448765755,
      0.8321194648742676,
      1.247987985610962,
      -97.30802154541016
    ],
    [
      0,
      0,
      0,
      1
    ]
  ],
  "dcmmeta_reorient_transform": [
    [
      0,
      -1,
      0,
      139
    ],
    [
      1,
      0,
      0,
      0
    ],
    [
      0,
      0,
      1,
      0
    ],
    [
      0,
      0,
      0,
      1
    ]
  ],
  "dcmmeta_shape": [
    140,
    140,
    92,
    99
  ],
  "dcmmeta_slice_dim": 2,
  "dcmmeta_version": 0.6,
  "time": {
    "samples": {
      "AcquisitionNumber": [
        1,
        2,
        3,
        4,
        5,
        6,
        7,
        8,
        9,
        10,
        11,
        12,
        13,
        14,
        15,
        16,
        17,
        18,
        19,
        20,
        21,
        22,
        23,
        24,
        25,
        26,
        27,
        28,
        29,
        30,
        31,
        32,
        33,
        34,
        35,
        36,
        37,
        38,
        39,
        40,
        41,
        42,
        43,
        44,
        45,
        46,
        47,
        48,
        49,
        50,
        51,
        52,
        53,
        54,
        55,
        56,
        57,
        58,
        59,
        60,
        61,
        62,
        63,
        64,
        65,
        66,
        67,
        68,
        69,
        70,
        71,
        72,
        73,
        74,
        75,
        76,
        77,
        78,
        79,
        80,
        81,
        82,
        83,
        84,
        85,
        86,
        87,
        88,
        89,
        90,
        91,
        92,
        93,
        94,
        95,
        96,
        97,
        98,
        99
      ],
      "AcquisitionTime": [
        "090229.915000",
        "090233.145000",
        "090236.375000",
        "090239.605000",
        "090242.835000",
        "090246.065000",
        "090249.295000",
        "090252.525000",
        "090255.755000",
        "090258.985000",
        "090302.215000",
        "090305.445000",
        "090308.675000",
        "090311.905000",
        "090315.135000",
        "090318.365000",
        "090321.595000",
        "090324.825000",
        "090328.055000",
        "090331.285000",
        "090334.515000",
        "090337.745000",
        "090340.975000",
        "090344.205000",
        "090347.435000",
        "090350.665000",
        "090353.895000",
        "090357.125000",
        "090400.355000",
        "090403.585000",
        "090406.815000",
        "090410.045000",
        "090413.275000",
        "090416.505000",
        "090419.735000",
        "090422.965000",
        "090426.195000",
        "090429.425000",
        "090432.655000",
        "090435.885000",
        "090439.115000",
        "090442.345000",
        "090445.575000",
        "090448.805000",
        "090452.035000",
        "090455.265000",
        "090458.495000",
        "090501.725000",
        "090504.955000",
        "090508.185000",
        "090511.415000",
        "090514.645000",
        "090517.875000",
        "090521.105000",
        "090524.335000",
        "090527.565000",
        "090530.795000",
        "090534.025000",
        "090537.255000",
        "090540.485000",
        "090543.715000",
        "090546.945000",
        "090550.175000",
        "090553.405000",
        "090556.635000",
        "090559.865000",
        "090603.095000",
        "090606.325000",
        "090609.555000",
        "090612.785000",
        "090616.015000",
        "090619.245000",
        "090622.475000",
        "090625.705000",
        "090628.935000",
        "090632.165000",
        "090635.395000",
        "090638.625000",
        "090641.855000",
        "090645.085000",
        "090648.315000",
        "090651.545000",
        "090654.775000",
        "090658.005000",
        "090701.235000",
        "090704.465000",
        "090707.695000",
        "090710.925000",
        "090714.155000",
        "090717.385000",
        "090720.615000",
        "090723.845000",
        "090727.075000",
        "090730.305000",
        "090733.535000",
        "090736.765000",
        "090739.995000",
        "090743.225000",
        "090746.455000"
      ],
      "ContentTime": [
        "090437.493000",
        "090437.498000",
        "090437.502000",
        "090437.505000",
        "090437.509000",
        "090437.512000",
        "090437.516000",
        "090437.519000",
        "090437.523000",
        "090437.526000",
        "090437.530000",
        "090437.533000",
        "090437.536000",
        "090437.540000",
        "090437.543000",
        "090437.547000",
        "090437.550000",
        "090437.560000",
        "090437.563000",
        "090437.567000",
        "090437.570000",
        "090437.574000",
        "090437.577000",
        "090437.581000",
        "090437.584000",
        "090437.588000",
        "090437.591000",
        "090437.595000",
        "090437.598000",
        "090437.602000",
        "090437.605000",
        "090437.609000",
        "090437.612000",
        "090437.615000",
        "090437.619000",
        "090437.623000",
        "090437.626000",
        "090437.630000",
        "090437.633000",
        "090557.446000",
        "090557.450000",
        "090557.454000",
        "090557.457000",
        "090557.461000",
        "090557.464000",
        "090557.475000",
        "090557.478000",
        "090557.482000",
        "090557.485000",
        "090557.489000",
        "090557.492000",
        "090557.495000",
        "090557.499000",
        "090557.502000",
        "090557.506000",
        "090557.509000",
        "090557.513000",
        "090557.516000",
        "090557.520000",
        "090557.523000",
        "090557.527000",
        "090557.530000",
        "090557.534000",
        "090557.537000",
        "090637.446000",
        "090637.450000",
        "090637.460000",
        "090637.464000",
        "090637.467000",
        "090637.471000",
        "090637.474000",
        "090637.478000",
        "090637.481000",
        "090637.484000",
        "090637.488000",
        "090637.491000",
        "090750.413000",
        "090750.419000",
        "090750.423000",
        "090750.430000",
        "090750.435000",
        "090750.440000",
        "090750.443000",
        "090750.448000",
        "090750.453000",
        "090750.456000",
        "090750.460000",
        "090750.470000",
        "090750.474000",
        "090750.478000",
        "090750.481000",
        "090750.485000",
        "090750.489000",
        "090750.493000",
        "090750.497000",
        "090750.500000",
        "090750.504000",
        "090750.508000",
        "090750.512000"
      ],
      "InstanceCreationTime": [
        "090437.493000",
        "090437.498000",
        "090437.502000",
        "090437.505000",
        "090437.509000",
        "090437.512000",
        "090437.516000",
        "090437.519000",
        "090437.523000",
        "090437.526000",
        "090437.530000",
        "090437.533000",
        "090437.536000",
        "090437.540000",
        "090437.543000",
        "090437.547000",
        "090437.550000",
        "090437.560000",
        "090437.563000",
        "090437.567000",
        "090437.570000",
        "090437.574000",
        "090437.577000",
        "090437.581000",
        "090437.584000",
        "090437.588000",
        "090437.591000",
        "090437.595000",
        "090437.598000",
        "090437.602000",
        "090437.605000",
        "090437.609000",
        "090437.612000",
        "090437.615000",
        "090437.619000",
        "090437.623000",
        "090437.626000",
        "090437.630000",
        "090437.633000",
        "090557.446000",
        "090557.450000",
        "090557.454000",
        "090557.457000",
        "090557.461000",
        "090557.464000",
        "090557.475000",
        "090557.478000",
        "090557.482000",
        "090557.485000",
        "090557.489000",
        "090557.492000",
        "090557.495000",
        "090557.499000",
        "090557.502000",
        "090557.506000",
        "090557.509000",
        "090557.513000",
        "090557.516000",
        "090557.520000",
        "090557.523000",
        "090557.527000",
        "090557.530000",
        "090557.534000",
        "090557.537000",
        "090637.446000",
        "090637.450000",
        "090637.460000",
        "090637.464000",
        "090637.467000",
        "090637.471000",
        "090637.474000",
        "090637.478000",
        "090637.481000",
        "090637.484000",
        "090637.488000",
        "090637.491000",
        "090750.413000",
        "090750.419000",
        "090750.423000",
        "090750.430000",
        "090750.435000",
        "090750.440000",
        "090750.443000",
        "090750.448000",
        "090750.453000",
        "090750.456000",
        "090750.460000",
        "090750.470000",
        "090750.474000",
        "090750.478000",
        "090750.481000",
        "090750.485000",
        "090750.489000",
        "090750.493000",
        "090750.497000",
        "090750.500000",
        "090750.504000",
        "090750.508000",
        "090750.512000"
      ],
      "InstanceNumber": [
        1,
        2,
        3,
        4,
        5,
        6,
        7,
        8,
        9,
        10,
        11,
        12,
        13,
        14,
        15,
        16,
        17,
        18,
        19,
        20,
        21,
        22,
        23,
        24,
        25,
        26,
        27,
        28,
        29,
        30,
        31,
        32,
        33,
        34,
        35,
        36,
        37,
        38,
        39,
        40,
        41,
        42,
        43,
        44,
        45,
        46,
        47,
        48,
        49,
        50,
        51,
        52,
        53,
        54,
        55,
        56,
        57,
        58,
        59,
        60,
        61,
        62,
        63,
        64,
        65,
        66,
        67,
        68,
        69,
        70,
        71,
        72,
        73,
        74,
        75,
        76,
        77,
        78,
        79,
        80,
        81,
        82,
        83,
        84,
        85,
        86,
        87,
        88,
        89,
        90,
        91,
        92,
        93,
        94,
        95,
        96,
        97,
        98,
        99
      ],
      "LargestImagePixelValue": [
        38645,
        34841,
        4797,
        2210,
        4596,
        2044,
        5008,
        2750,
        4627,
        3178,
        4857,
        1793,
        4628,
        2190,
        4860,
        2666,
        4778,
        34019,
        2359,
        4470,
        2260,
        4179,
        2352,
        4437,
        1912,
        4551,
        2411,
        4368,
        2562,
        4430,
        3258,
        4816,
        1971,
        40059,
        4535,
        2197,
        4830,
        2855,
        4497,
        2102,
        4191,
        2166,
        5026,
        2095,
        4888,
        2442,
        4399,
        2720,
        4737,
        39549,
        2257,
        4058,
        2255,
        5200,
        3041,
        4753,
        1939,
        4756,
        2908,
        4831,
        2519,
        4881,
        3261,
        4861,
        2259,
        45947,
        4682,
        2067,
        4400,
        2333,
        4290,
        2344,
        4629,
        2838,
        4468,
        2134,
        4712,
        2068,
        4199,
        2870,
        4522,
        32281,
        2217,
        4547,
        2383,
        4711,
        2658,
        4362,
        1861,
        4587,
        2575,
        4540,
        2085,
        4273,
        2631,
        4756,
        2841,
        4980,
        1933
      ],
      "SequenceName": [
        "ep_b5#1",
        "ep_b5#1",
        "ep_b1490#2",
        "ep_b2985#3",
        "ep_b1495#4",
        "ep_b3005#5",
        "ep_b1505#6",
        "ep_b2985#7",
        "ep_b1500#8",
        "ep_b3005#9",
        "ep_b1490#10",
        "ep_b2990#11",
        "ep_b1495#12",
        "ep_b2990#13",
        "ep_b1500#14",
        "ep_b2985#15",
        "ep_b1505#16",
        "ep_b5#17",
        "ep_b3005#18",
        "ep_b1495#19",
        "ep_b3000#20",
        "ep_b1495#21",
        "ep_b3000#22",
        "ep_b1495#23",
        "ep_b3000#24",
        "ep_b1490#25",
        "ep_b2980#26",
        "ep_b1505#27",
        "ep_b2990#28",
        "ep_b1495#29",
        "ep_b3005#30",
        "ep_b1490#31",
        "ep_b3000#32",
        "ep_b5#33",
        "ep_b1505#34",
        "ep_b3000#35",
        "ep_b1490#36",
        "ep_b2980#37",
        "ep_b1495#38",
        "ep_b3000#39",
        "ep_b1500#40",
        "ep_b2995#41",
        "ep_b1505#42",
        "ep_b2990#43",
        "ep_b1495#44",
        "ep_b3000#45",
        "ep_b1495#46",
        "ep_b3000#47",
        "ep_b1490#48",
        "ep_b5#49",
        "ep_b3005#50",
        "ep_b1495#51",
        "ep_b2995#52",
        "ep_b1505#53",
        "ep_b2995#54",
        "ep_b1490#55",
        "ep_b2990#56",
        "ep_b1490#57",
        "ep_b3000#58",
        "ep_b1500#59",
        "ep_b3000#60",
        "ep_b1505#61",
        "ep_b2985#62",
        "ep_b1500#63",
        "ep_b2990#64",
        "ep_b5#65",
        "ep_b1505#66",
        "ep_b3005#67",
        "ep_b1495#68",
        "ep_b3005#69",
        "ep_b1505#70",
        "ep_b3005#71",
        "ep_b1500#72",
        "ep_b3005#73",
        "ep_b1490#74",
        "ep_b2990#75",
        "ep_b1495#76",
        "ep_b2995#77",
        "ep_b1500#78",
        "ep_b3000#79",
        "ep_b1490#80",
        "ep_b5#81",
        "ep_b2990#82",
        "ep_b1500#83",
        "ep_b2980#84",
        "ep_b1495#85",
        "ep_b2995#86",
        "ep_b1495#87",
        "ep_b2990#88",
        "ep_b1490#89",
        "ep_b2980#90",
        "ep_b1495#91",
        "ep_b2995#92",
        "ep_b1495#93",
        "ep_b3005#94",
        "ep_b1500#95",
        "ep_b2990#96",
        "ep_b1500#97",
        "ep_b3000#98"
      ],
      "TriggerTime": [
        18775,
        22005,
        25235,
        28465,
        31695,
        34925,
        38155,
        41385,
        44615,
        47845,
        51075,
        54305,
        57535,
        60765,
        63995,
        67225,
        70455,
        73685,
        76915,
        80145,
        83375,
        86605,
        89835,
        93065,
        96295,
        99525,
        102755,
        105985,
        109215,
        112445,
        115675,
        118905,
        122135,
        125365,
        128595,
        131825,
        135055,
        138285,
        141515,
        144745,
        147975,
        151205,
        154435,
        157665,
        160895,
        164125,
        167355,
        170585,
        173815,
        177045,
        180275,
        183505,
        186735,
        189965,
        193195,
        196425,
        199655,
        202885,
        206115,
        209345,
        212575,
        215805,
        219035,
        222265,
        225495,
        228725,
        231955,
        235185,
        238415,
        241645,
        244875,
        248105,
        251335,
        254565,
        257795,
        261025,
        264255,
        267485,
        270715,
        273945,
        277175,
        280405,
        283635,
        286865,
        290095,
        293325,
        296555,
        299785,
        303015,
        306245,
        309475,
        312705,
        315935,
        319165,
        322395,
        325625,
        328855,
        332085,
        335315
      ],
      "WindowCenter": [
        4891,
        4828,
        1325,
        752,
        1314,
        728,
        1335,
        793,
        1311,
        818,
        1326,
        732,
        1325,
        758,
        1324,
        786,
        1310,
        4762,
        768,
        1312,
        753,
        1296,
        755,
        1309,
        733,
        1298,
        781,
        1310,
        783,
        1309,
        819,
        1325,
        729,
        5000,
        1309,
        753,
        1311,
        806,
        1310,
        770,
        1298,
        751,
        1320,
        769,
        1325,
        775,
        1296,
        808,
        1323,
        4987,
        755,
        1310,
        757,
        1323,
        820,
        1309,
        733,
        1324,
        792,
        1322,
        777,
        1310,
        818,
        1337,
        758,
        5330,
        1309,
        730,
        1296,
        752,
        1297,
        757,
        1309,
        803,
        1311,
        754,
        1326,
        735,
        1297,
        792,
        1297,
        4700,
        766,
        1298,
        752,
        1322,
        782,
        1293,
        710,
        1312,
        795,
        1313,
        756,
        1314,
        782,
        1308,
        810,
        1324,
        728
      ],
      "WindowWidth": [
        10963,
        10978,
        3461,
        2070,
        3446,
        2009,
        3478,
        2173,
        3434,
        2229,
        3465,
        2023,
        3465,
        2092,
        3462,
        2161,
        3431,
        10859,
        2111,
        3436,
        2074,
        3402,
        2082,
        3426,
        2029,
        3411,
        2143,
        3428,
        2151,
        3428,
        2234,
        3464,
        2016,
        11175,
        3426,
        2073,
        3432,
        2201,
        3433,
        2121,
        3409,
        2066,
        3446,
        2114,
        3461,
        2123,
        3399,
        2211,
        3455,
        11139,
        2079,
        3431,
        2086,
        3456,
        2238,
        3425,
        2027,
        3459,
        2169,
        3452,
        2133,
        3436,
        2230,
        3488,
        2092,
        11620,
        3425,
        2017,
        3399,
        2069,
        3404,
        2086,
        3430,
        2194,
        3434,
        2078,
        3464,
        2036,
        3403,
        2170,
        3407,
        10775,
        2103,
        3408,
        2070,
        3453,
        2147,
        3392,
        1963,
        3440,
        2177,
        3438,
        2084,
        3446,
        2149,
        3425,
        2216,
        3460,
        2012
      ]
    },
    "slices": {}
  }
}
