{
  "AcquisitionMatrixPE": 140,
  "AcquisitionNumber": 1,
  "AcquisitionTime": "16:44:6.360000",
  "BandwidthPerPixelPhaseEncode": 10.352,
  "BaseResolution": 140,
  "BodyPartExamined": "BRAIN",
  "CoilCombinationMethod": "Sum of Squares",
  "ConsistencyInfo": "N4_VE11C_LATEST_20160120",
  "ConversionSoftware": "dcm2niix",
  "ConversionSoftwareVersion": "v1.0.20220720",
  "DerivedVendorReportedEchoSpacing": 0.000689998,
  "DeviceSerialNumber": "67026",
  "DiffusionScheme": "Monopolar",
  "DwellTime": 2.1e-06,
  "EchoTime": 0.0892,
  "EchoTrainLength": 105,
  "EffectiveEchoSpacing": 0.000689998,
  "FlipAngle": 78,
  "HeudiconvVersion": "0.11.4",
  "ImageComments": "Unaliased MB4/PE3/LB SENSE1",
  "ImageOrientationPatientDICOM": [
    0.993671,
    0.0592236,
    -0.0954485,
    -0.0832663,
    0.958687,
    -0.272004
  ],
  "ImageOrientationText": "Tra>Cor(-16.2)>Sag(-4.3)",
  "ImageType": [
    "ORIGINAL",
    "PRIMARY",
    "DIFFUSION",
    "NONE",
    "MB",
    "ND",
    "MOSAIC"
  ],
  "ImagingFrequency": 123.165,
  "InPlanePhaseEncodingDirectionDICOM": "COL",
  "InstitutionAddress": "13th St. 149,Charlestown,MA,US,02129",
  "InstitutionName": "MGH PrismaFit-Bay4",
  "InstitutionalDepartmentName": "Martinos Center",
  "MRAcquisitionType": "2D",
  "MagneticFieldStrength": 3,
  "Manufacturer": "Siemens",
  "ManufacturersModelName": "Prisma_fit",
  "MatrixCoilMode": "SENSE",
  "Modality": "MR",
  "MultibandAccelerationFactor": 4,
  "NonlinearGradientCorrection": false,
  "PartialFourier": 0.75,
  "PatientPosition": "HFS",
  "PercentPhaseFOV": 100,
  "PercentSampling": 100,
  "PhaseEncodingDirection": "j-",
  "PhaseEncodingSteps": 105,
  "PhaseResolution": 1,
  "PixelBandwidth": 1700,
  "ProcedureStepDescription": "INVESTIGATORS^Greve",
  "ProtocolName": "dMRI_dir98_AP",
  "PulseSequenceDetails": "%CustomerSeq%\\hcp_mbep2d_diff",
  "ReceiveCoilActiveElements": "HEA;HEP",
  "ReceiveCoilName": "Head_32",
  "ReconMatrixPE": 140,
  "RepetitionTime": 3.23,
  "SAR": 0.139629,
  "ScanOptions": "PFP\\EXT",
  "ScanningSequence": "EP",
  "SequenceName": "ep_b5#1",
  "SequenceVariant": "SK\\SS",
  "SeriesDescription": "dMRI_dir98_AP",
  "SeriesNumber": 44,
  "ShimSetting": [
    -1240,
    -10509,
    -10053,
    732,
    63,
    89,
    16,
    27
  ],
  "SliceThickness": 1.5,
  "SliceTiming": [
    0,
    1.675,
    0.1375,
    1.8125,
    0.2775,
    1.9525,
    0.4175,
    2.0925,
    0.5575,
    2.2325,
    0.6975,
    2.3725,
    0.8375,
    2.51,
    0.975,
    2.65,
    1.115,
    2.79,
    1.255,
    2.93,
    1.395,
    3.07,
    1.535,
    0,
    1.675,
    0.1375,
    1.8125,
    0.2775,
    1.9525,
    0.4175,
    2.0925,
    0.5575,
    2.2325,
    0.6975,
    2.3725,
    0.8375,
    2.51,
    0.975,
    2.65,
    1.115,
    2.79,
    1.255,
    2.93,
    1.395,
    3.07,
    1.535,
    0,
    1.675,
    0.1375,
    1.8125,
    0.2775,
    1.9525,
    0.4175,
    2.0925,
    0.5575,
    2.2325,
    0.6975,
    2.3725,
    0.8375,
    2.51,
    0.975,
    2.65,
    1.115,
    2.79,
    1.255,
    2.93,
    1.395,
    3.07,
    1.535,
    0,
    1.675,
    0.1375,
    1.8125,
    0.2775,
    1.9525,
    0.4175,
    2.0925,
    0.5575,
    2.2325,
    0.6975,
    2.3725,
    0.8375,
    2.51,
    0.975,
    2.65,
    1.115,
    2.79,
    1.255,
    2.93,
    1.395,
    3.07,
    1.535
  ],
  "SoftwareVersions": "syngo MR E11",
  "SpacingBetweenSlices": 1.5,
  "StationName": "BAY4OC",
  "TotalReadoutTime": 0.0959097,
  "TxRefAmp": 229.389,
  "WipMemBlock": "39ca0ebc-5390-4d54-8449-431fcfaab112||Sequence: ve11c/master r/5b0256d+; Dec  9 2016 09:48:43 by eja",
  "dcmmeta_affine": [
    [
      -1.4905065298080444,
      -0.12489943206310272,
      -0.11309420317411423,
      116.49250793457031
    ],
    [
      -0.08883540332317352,
      1.4380301237106323,
      -0.4173458516597748,
      -64.72538757324219
    ],
    [
      -0.1431727558374405,
      0.4080066382884979,
      1.4363259077072144,
      -49.9724006652832
    ],
    [
      0,
      0,
      0,
      1
    ]
  ],
  "dcmmeta_reorient_transform": [
    [
      0,
      -1,
      0,
      139
    ],
    [
      1,
      0,
      0,
      0
    ],
    [
      0,
      0,
      1,
      0
    ],
    [
      0,
      0,
      0,
      1
    ]
  ],
  "dcmmeta_shape": [
    140,
    140,
    92,
    99
  ],
  "dcmmeta_slice_dim": 2,
  "dcmmeta_version": 0.6,
  "time": {
    "samples": {
      "AcquisitionNumber": [
        1,
        2,
        3,
        4,
        5,
        6,
        7,
        8,
        9,
        10,
        11,
        12,
        13,
        14,
        15,
        16,
        17,
        18,
        19,
        20,
        21,
        22,
        23,
        24,
        25,
        26,
        27,
        28,
        29,
        30,
        31,
        32,
        33,
        34,
        35,
        36,
        37,
        38,
        39,
        40,
        41,
        42,
        43,
        44,
        45,
        46,
        47,
        48,
        49,
        50,
        51,
        52,
        53,
        54,
        55,
        56,
        57,
        58,
        59,
        60,
        61,
        62,
        63,
        64,
        65,
        66,
        67,
        68,
        69,
        70,
        71,
        72,
        73,
        74,
        75,
        76,
        77,
        78,
        79,
        80,
        81,
        82,
        83,
        84,
        85,
        86,
        87,
        88,
        89,
        90,
        91,
        92,
        93,
        94,
        95,
        96,
        97,
        98,
        99
      ],
      "AcquisitionTime": [
        "164406.360000",
        "164409.590000",
        "164412.820000",
        "164416.050000",
        "164419.280000",
        "164422.510000",
        "164425.740000",
        "164428.970000",
        "164432.200000",
        "164435.430000",
        "164438.660000",
        "164441.890000",
        "164445.120000",
        "164448.350000",
        "164451.580000",
        "164454.810000",
        "164458.040000",
        "164501.270000",
        "164504.500000",
        "164507.730000",
        "164510.960000",
        "164514.190000",
        "164517.420000",
        "164520.650000",
        "164523.880000",
        "164527.110000",
        "164530.340000",
        "164533.570000",
        "164536.800000",
        "164540.030000",
        "164543.260000",
        "164546.490000",
        "164549.720000",
        "164552.950000",
        "164556.180000",
        "164559.410000",
        "164602.640000",
        "164605.870000",
        "164609.100000",
        "164612.330000",
        "164615.560000",
        "164618.790000",
        "164622.020000",
        "164625.250000",
        "164628.480000",
        "164631.710000",
        "164634.940000",
        "164638.170000",
        "164641.400000",
        "164644.630000",
        "164647.860000",
        "164651.090000",
        "164654.320000",
        "164657.550000",
        "164700.780000",
        "164704.010000",
        "164707.240000",
        "164710.470000",
        "164713.700000",
        "164716.930000",
        "164720.160000",
        "164723.390000",
        "164726.620000",
        "164729.850000",
        "164733.080000",
        "164736.310000",
        "164739.540000",
        "164742.770000",
        "164746.000000",
        "164749.230000",
        "164752.460000",
        "164755.690000",
        "164758.920000",
        "164802.150000",
        "164805.380000",
        "164808.610000",
        "164811.840000",
        "164815.070000",
        "164818.300000",
        "164821.530000",
        "164824.760000",
        "164827.990000",
        "164831.220000",
        "164834.450000",
        "164837.680000",
        "164840.910000",
        "164844.140000",
        "164847.370000",
        "164850.600000",
        "164853.830000",
        "164857.060000",
        "164900.290000",
        "164903.520000",
        "164906.750000",
        "164909.980000",
        "164913.210000",
        "164916.440000",
        "164919.670000",
        "164922.900000"
      ],
      "ContentTime": [
        "164642.481000",
        "164642.484000",
        "164642.488000",
        "164642.491000",
        "164642.498000",
        "164642.501000",
        "164642.505000",
        "164642.508000",
        "164642.520000",
        "164642.523000",
        "164642.530000",
        "164642.539000",
        "164642.542000",
        "164642.545000",
        "164642.549000",
        "164642.553000",
        "164642.556000",
        "164642.561000",
        "164642.565000",
        "164642.569000",
        "164642.573000",
        "164642.576000",
        "164642.580000",
        "164642.583000",
        "164642.587000",
        "164702.434000",
        "164702.438000",
        "164702.441000",
        "164702.444000",
        "164702.452000",
        "164702.455000",
        "164702.458000",
        "164702.462000",
        "164702.465000",
        "164702.476000",
        "164702.479000",
        "164702.482000",
        "164702.486000",
        "164702.489000",
        "164702.493000",
        "164702.496000",
        "164702.500000",
        "164702.503000",
        "164702.506000",
        "164702.510000",
        "164702.513000",
        "164702.517000",
        "164802.433000",
        "164802.437000",
        "164802.440000",
        "164802.444000",
        "164802.452000",
        "164802.455000",
        "164802.458000",
        "164802.462000",
        "164802.465000",
        "164802.468000",
        "164802.472000",
        "164802.475000",
        "164802.478000",
        "164802.482000",
        "164802.485000",
        "164802.488000",
        "164802.492000",
        "164802.495000",
        "164802.498000",
        "164802.502000",
        "164802.505000",
        "164802.508000",
        "164802.511000",
        "164802.522000",
        "164802.525000",
        "164922.434000",
        "164922.446000",
        "164922.450000",
        "164922.453000",
        "164922.457000",
        "164922.460000",
        "164922.463000",
        "164922.467000",
        "164922.470000",
        "164922.473000",
        "164922.476000",
        "164922.480000",
        "164922.483000",
        "164922.486000",
        "164922.490000",
        "164922.493000",
        "164922.496000",
        "164922.500000",
        "164922.503000",
        "164922.506000",
        "164922.510000",
        "164922.513000",
        "164922.516000",
        "164922.520000",
        "164922.523000",
        "164927.229000",
        "164927.233000"
      ],
      "InstanceCreationTime": [
        "164642.481000",
        "164642.484000",
        "164642.488000",
        "164642.491000",
        "164642.498000",
        "164642.501000",
        "164642.505000",
        "164642.508000",
        "164642.520000",
        "164642.523000",
        "164642.530000",
        "164642.539000",
        "164642.542000",
        "164642.545000",
        "164642.549000",
        "164642.553000",
        "164642.556000",
        "164642.561000",
        "164642.565000",
        "164642.569000",
        "164642.573000",
        "164642.576000",
        "164642.580000",
        "164642.583000",
        "164642.587000",
        "164702.434000",
        "164702.438000",
        "164702.441000",
        "164702.444000",
        "164702.452000",
        "164702.455000",
        "164702.458000",
        "164702.462000",
        "164702.465000",
        "164702.476000",
        "164702.479000",
        "164702.482000",
        "164702.486000",
        "164702.489000",
        "164702.493000",
        "164702.496000",
        "164702.500000",
        "164702.503000",
        "164702.506000",
        "164702.510000",
        "164702.513000",
        "164702.517000",
        "164802.433000",
        "164802.437000",
        "164802.440000",
        "164802.444000",
        "164802.452000",
        "164802.455000",
        "164802.458000",
        "164802.462000",
        "164802.465000",
        "164802.468000",
        "164802.472000",
        "164802.475000",
        "164802.478000",
        "164802.482000",
        "164802.485000",
        "164802.488000",
        "164802.492000",
        "164802.495000",
        "164802.498000",
        "164802.502000",
        "164802.505000",
        "164802.508000",
        "164802.511000",
        "164802.522000",
        "164802.525000",
        "164922.434000",
        "164922.446000",
        "164922.450000",
        "164922.453000",
        "164922.457000",
        "164922.460000",
        "164922.463000",
        "164922.467000",
        "164922.470000",
        "164922.473000",
        "164922.476000",
        "164922.480000",
        "164922.483000",
        "164922.486000",
        "164922.490000",
        "164922.493000",
        "164922.496000",
        "164922.500000",
        "164922.503000",
        "164922.506000",
        "164922.510000",
        "164922.513000",
        "164922.516000",
        "164922.520000",
        "164922.523000",
        "164927.229000",
        "164927.233000"
      ],
      "InstanceNumber": [
        1,
        2,
        3,
        4,
        5,
        6,
        7,
        8,
        9,
        10,
        11,
        12,
        13,
        14,
        15,
        16,
        17,
        18,
        19,
        20,
        21,
        22,
        23,
        24,
        25,
        26,
        27,
        28,
        29,
        30,
        31,
        32,
        33,
        34,
        35,
        36,
        37,
        38,
        39,
        40,
        41,
        42,
        43,
        44,
        45,
        46,
        47,
        48,
        49,
        50,
        51,
        52,
        53,
        54,
        55,
        56,
        57,
        58,
        59,
        60,
        61,
        62,
        63,
        64,
        65,
        66,
        67,
        68,
        69,
        70,
        71,
        72,
        73,
        74,
        75,
        76,
        77,
        78,
        79,
        80,
        81,
        82,
        83,
        84,
        85,
        86,
        87,
        88,
        89,
        90,
        91,
        92,
        93,
        94,
        95,
        96,
        97,
        98,
        99
      ],
      "LargestImagePixelValue": [
        32563,
        32836,
        5121,
        2466,
        6152,
        2816,
        5057,
        2715,
        5061,
        2571,
        5485,
        2423,
        5298,
        2906,
        5211,
        4939,
        5734,
        30951,
        2589,
        5506,
        2790,
        4745,
        3341,
        5352,
        2369,
        5097,
        3283,
        6033,
        2967,
        5200,
        2326,
        6613,
        3301,
        32770,
        5433,
        3047,
        4781,
        2503,
        5181,
        2412,
        5498,
        2435,
        5538,
        2550,
        5534,
        2769,
        4955,
        3227,
        7440,
        36031,
        4149,
        5042,
        2500,
        5637,
        3320,
        5228,
        2484,
        5503,
        2478,
        5352,
        4237,
        5442,
        2343,
        5407,
        2971,
        34813,
        5872,
        2532,
        5209,
        2450,
        6498,
        4656,
        5312,
        2660,
        6001,
        2682,
        5233,
        2257,
        5330,
        2376,
        5150,
        35720,
        2390,
        5672,
        3089,
        5546,
        3555,
        4832,
        2313,
        5249,
        3108,
        5504,
        2466,
        5509,
        2449,
        5208,
        3533,
        5273,
        2835
      ],
      "SequenceName": [
        "ep_b5#1",
        "ep_b5#1",
        "ep_b1490#2",
        "ep_b2990#3",
        "ep_b1495#4",
        "ep_b3005#5",
        "ep_b1500#6",
        "ep_b2985#7",
        "ep_b1495#8",
        "ep_b3005#9",
        "ep_b1490#10",
        "ep_b2995#11",
        "ep_b1490#12",
        "ep_b2990#13",
        "ep_b1500#14",
        "ep_b2985#15",
        "ep_b1500#16",
        "ep_b5#17",
        "ep_b3005#18",
        "ep_b1490#19",
        "ep_b2995#20",
        "ep_b1500#21",
        "ep_b3000#22",
        "ep_b1495#23",
        "ep_b3005#24",
        "ep_b1490#25",
        "ep_b2980#26",
        "ep_b1505#27",
        "ep_b2995#28",
        "ep_b1500#29",
        "ep_b3000#30",
        "ep_b1490#31",
        "ep_b3005#32",
        "ep_b5#33",
        "ep_b1505#34",
        "ep_b3000#35",
        "ep_b1490#36",
        "ep_b2980#37",
        "ep_b1495#38",
        "ep_b2995#39",
        "ep_b1500#40",
        "ep_b2995#41",
        "ep_b1505#42",
        "ep_b2985#43",
        "ep_b1495#44",
        "ep_b3000#45",
        "ep_b1495#46",
        "ep_b3000#47",
        "ep_b1490#48",
        "ep_b5#49",
        "ep_b3005#50",
        "ep_b1500#51",
        "ep_b2990#52",
        "ep_b1505#53",
        "ep_b2995#54",
        "ep_b1495#55",
        "ep_b2990#56",
        "ep_b1490#57",
        "ep_b3000#58",
        "ep_b1500#59",
        "ep_b3000#60",
        "ep_b1500#61",
        "ep_b2985#62",
        "ep_b1500#63",
        "ep_b2990#64",
        "ep_b5#65",
        "ep_b1505#66",
        "ep_b3005#67",
        "ep_b1495#68",
        "ep_b3000#69",
        "ep_b1505#70",
        "ep_b3005#71",
        "ep_b1500#72",
        "ep_b3005#73",
        "ep_b1490#74",
        "ep_b2995#75",
        "ep_b1490#76",
        "ep_b2995#77",
        "ep_b1505#78",
        "ep_b3000#79",
        "ep_b1490#80",
        "ep_b5#81",
        "ep_b2985#82",
        "ep_b1500#83",
        "ep_b2985#84",
        "ep_b1490#85",
        "ep_b2995#86",
        "ep_b1495#87",
        "ep_b2995#88",
        "ep_b1490#89",
        "ep_b2980#90",
        "ep_b1500#91",
        "ep_b3000#92",
        "ep_b1490#93",
        "ep_b3005#94",
        "ep_b1495#95",
        "ep_b2990#96",
        "ep_b1500#97",
        "ep_b3000#98"
      ],
      "TriggerTime": [
        18777.5,
        22007.5,
        25237.5,
        28467.5,
        31697.5,
        34927.5,
        38157.5,
        41387.5,
        44617.5,
        47847.5,
        51077.5,
        54307.5,
        57537.5,
        60767.5,
        63997.5,
        67227.5,
        70457.5,
        73687.5,
        76917.5,
        80147.5,
        83377.5,
        86607.5,
        89837.5,
        93067.5,
        96297.5,
        99527.5,
        102757.5,
        105987.5,
        109217.5,
        112447.5,
        115677.5,
        118907.5,
        122137.5,
        125367.5,
        128597.5,
        131827.5,
        135057.5,
        138287.5,
        141517.5,
        144747.5,
        147977.5,
        151207.5,
        154437.5,
        157667.5,
        160897.5,
        164127.5,
        167357.5,
        170587.5,
        173817.5,
        177047.5,
        180277.5,
        183507.5,
        186737.5,
        189967.5,
        193197.5,
        196427.5,
        199657.5,
        202887.5,
        206117.5,
        209347.5,
        212577.5,
        215807.5,
        219037.5,
        222267.5,
        225497.5,
        228727.5,
        231957.5,
        235187.5,
        238417.5,
        241647.5,
        244877.5,
        248107.5,
        251337.5,
        254567.5,
        257797.5,
        261027.5,
        264257.5,
        267487.5,
        270717.5,
        273947.5,
        277177.5,
        280407.5,
        283637.5,
        286867.5,
        290097.5,
        293327.5,
        296557.5,
        299787.5,
        303017.5,
        306247.5,
        309477.5,
        312707.5,
        315937.5,
        319167.5,
        322397.5,
        325627.5,
        328857.5,
        332087.5,
        335317.5
      ],
      "WindowCenter": [
        4108,
        4133,
        1575,
        925,
        1631,
        942,
        1603,
        912,
        1591,
        899,
        1573,
        929,
        1619,
        954,
        1589,
        1013,
        1586,
        4102,
        919,
        1604,
        935,
        1578,
        953,
        1590,
        902,
        1571,
        940,
        1586,
        942,
        1602,
        880,
        1628,
        958,
        4108,
        1573,
        945,
        1562,
        914,
        1589,
        934,
        1589,
        910,
        1573,
        935,
        1603,
        929,
        1577,
        964,
        1626,
        4159,
        979,
        1604,
        929,
        1571,
        969,
        1590,
        939,
        1602,
        903,
        1604,
        966,
        1572,
        888,
        1631,
        956,
        4140,
        1571,
        922,
        1591,
        926,
        1585,
        997,
        1604,
        899,
        1586,
        928,
        1589,
        907,
        1602,
        884,
        1587,
        4146,
        894,
        1587,
        942,
        1602,
        978,
        1563,
        904,
        1573,
        941,
        1590,
        929,
        1632,
        920,
        1588,
        977,
        1573,
        944
      ],
      "WindowWidth": [
        9331,
        9375,
        4012,
        2523,
        4129,
        2544,
        4076,
        2492,
        4051,
        2445,
        4006,
        2537,
        4107,
        2589,
        4046,
        2707,
        4032,
        9338,
        2495,
        4076,
        2542,
        4027,
        2587,
        4045,
        2474,
        4001,
        2538,
        4027,
        2563,
        4071,
        2412,
        4118,
        2585,
        9329,
        4003,
        2558,
        3991,
        2479,
        4046,
        2556,
        4042,
        2488,
        4009,
        2536,
        4073,
        2519,
        4023,
        2607,
        4107,
        9403,
        2621,
        4076,
        2535,
        3999,
        2625,
        4050,
        2553,
        4065,
        2462,
        4078,
        2598,
        4006,
        2423,
        4134,
        2597,
        9377,
        3998,
        2510,
        4051,
        2524,
        4026,
        2671,
        4079,
        2443,
        4031,
        2532,
        4042,
        2493,
        4066,
        2426,
        4038,
        9381,
        2440,
        4037,
        2547,
        4065,
        2641,
        3995,
        2481,
        4008,
        2541,
        4047,
        2539,
        4134,
        2501,
        4042,
        2636,
        4007,
        2549
      ]
    },
    "slices": {}
  }
}
