{
  "AcquisitionMatrixPE": 104,
  "AcquisitionNumber": 1,
  "AcquisitionTime": "15:32:34.660000",
  "BandwidthPerPixelPhaseEncode": 16.578,
  "BaseResolution": 104,
  "BodyPartExamined": "BRAIN",
  "CoilCombinationMethod": "Sum of Squares",
  "ConsistencyInfo": "N4_VE11C_LATEST_20160120",
  "ConversionSoftware": "dcm2niix",
  "ConversionSoftwareVersion": "v1.0.20220720",
  "DerivedVendorReportedEchoSpacing": 0.000580009,
  "DeviceSerialNumber": "67026",
  "DwellTime": 2.1e-06,
  "EchoTime": 0.037,
  "EchoTrainLength": 104,
  "EffectiveEchoSpacing": 0.000580009,
  "FlipAngle": 52,
  "HeudiconvVersion": "0.11.4",
  "ImageComments": "Unaliased MB8/PE3/LB",
  "ImageOrientationPatientDICOM": [
    0.997521,
    -0.0702874,
    -0.00350507,
    0.0583901,
    0.85442,
    -0.516291
  ],
  "ImageOrientationText": "Tra>Cor(-31.0)>Sag(-2.3)",
  "ImageType": [
    "ORIGINAL",
    "PRIMARY",
    "M",
    "MB",
    "ND",
    "MOSAIC"
  ],
  "ImagingFrequency": 123.194,
  "InPlanePhaseEncodingDirectionDICOM": "COL",
  "InstitutionAddress": "13th St. 149,Charlestown,MA,US,02129",
  "InstitutionName": "MGH PrismaFit-Bay4",
  "InstitutionalDepartmentName": "Martinos Center",
  "MRAcquisitionType": "2D",
  "MagneticFieldStrength": 3,
  "Manufacturer": "Siemens",
  "ManufacturersModelName": "Prisma_fit",
  "MatrixCoilMode": "SENSE",
  "Modality": "MR",
  "MultibandAccelerationFactor": 8,
  "NonlinearGradientCorrection": false,
  "PartialFourier": 1,
  "PatientPosition": "HFS",
  "PercentPhaseFOV": 100,
  "PercentSampling": 100,
  "PhaseEncodingDirection": "j-",
  "PhaseEncodingSteps": 104,
  "PhaseResolution": 1,
  "PixelBandwidth": 2290,
  "ProcedureStepDescription": "INVESTIGATORS^Greve",
  "ProtocolName": "rfMRI_REST_AP",
  "PulseSequenceDetails": "%CustomerSeq%\\hcp_mbep2d_bold",
  "ReceiveCoilActiveElements": "HEA;HEP",
  "ReceiveCoilName": "Head_32",
  "ReconMatrixPE": 104,
  "RepetitionTime": 0.8,
  "SAR": 0.0551092,
  "ScanOptions": "FS\\EXT",
  "ScanningSequence": "EP",
  "SequenceName": "epfid2d1_104",
  "SequenceVariant": "SK\\SS",
  "SeriesDescription": "rfMRI_REST_AP",
  "SeriesNumber": 33,
  "ShimSetting": [
    -1229,
    -10472,
    -10188,
    401,
    135,
    170,
    58,
    -2
  ],
  "SliceThickness": 2,
  "SliceTiming": [
    0,
    0.435,
    0.0875,
    0.52,
    0.175,
    0.6075,
    0.26,
    0.695,
    0.3475,
    0,
    0.435,
    0.0875,
    0.52,
    0.175,
    0.6075,
    0.26,
    0.695,
    0.3475,
    0,
    0.435,
    0.0875,
    0.52,
    0.175,
    0.6075,
    0.26,
    0.695,
    0.3475,
    0,
    0.435,
    0.0875,
    0.52,
    0.175,
    0.6075,
    0.26,
    0.695,
    0.3475,
    0,
    0.435,
    0.0875,
    0.52,
    0.175,
    0.6075,
    0.26,
    0.695,
    0.3475,
    0,
    0.435,
    0.0875,
    0.52,
    0.175,
    0.6075,
    0.26,
    0.695,
    0.3475,
    0,
    0.435,
    0.0875,
    0.52,
    0.175,
    0.6075,
    0.26,
    0.695,
    0.3475,
    0,
    0.435,
    0.0875,
    0.52,
    0.175,
    0.6075,
    0.26,
    0.695,
    0.3475
  ],
  "SoftwareVersions": "syngo MR E11",
  "SpacingBetweenSlices": 2,
  "StationName": "BAY4OC",
  "TaskName": "rest",
  "TotalReadoutTime": 0.0597409,
  "TxRefAmp": 237.217,
  "WipMemBlock": "e312cb9d-1c2e-4930-ab28-3f7cc0c355cf||Sequence: ve11c/master r/5b0256d+; Dec  9 2016 09:38:51 by eja",
  "dcmmeta_affine": [
    [
      -1.9950412511825562,
      0.11678029596805573,
      -0.07856716960668564,
      95.10826110839844
    ],
    [
      0.1405748724937439,
      1.7088406085968018,
      -1.0296127796173096,
      -55.47813034057617
    ],
    [
      -0.0070101432502269745,
      1.03258216381073,
      1.712812066078186,
      -103.77925109863281
    ],
    [
      0,
      0,
      0,
      1
    ]
  ],
  "dcmmeta_reorient_transform": [
    [
      0,
      -1,
      0,
      103
    ],
    [
      1,
      0,
      0,
      0
    ],
    [
      0,
      0,
      1,
      0
    ],
    [
      0,
      0,
      0,
      1
    ]
  ],
  "dcmmeta_shape": [
    104,
    104,
    72,
    600
  ],
  "dcmmeta_slice_dim": 2,
  "dcmmeta_version": 0.6,
  "time": {
    "samples": {
      "AcquisitionNumber": [
        1,
        2,
        3,
        4,
        5,
        6,
        7,
        8,
        9,
        10,
        11,
        12,
        13,
        14,
        15,
        16,
        17,
        18,
        19,
        20,
        21,
        22,
        23,
        24,
        25,
        26,
        27,
        28,
        29,
        30,
        31,
        32,
        33,
        34,
        35,
        36,
        37,
        38,
        39,
        40,
        41,
        42,
        43,
        44,
        45,
        46,
        47,
        48,
        49,
        50,
        51,
        52,
        53,
        54,
        55,
        56,
        57,
        58,
        59,
        60,
        61,
        62,
        63,
        64,
        65,
        66,
        67,
        68,
        69,
        70,
        71,
        72,
        73,
        74,
        75,
        76,
        77,
        78,
        79,
        80,
        81,
        82,
        83,
        84,
        85,
        86,
        87,
        88,
        89,
        90,
        91,
        92,
        93,
        94,
        95,
        96,
        97,
        98,
        99,
        100,
        101,
        102,
        103,
        104,
        105,
        106,
        107,
        108,
        109,
        110,
        111,
        112,
        113,
        114,
        115,
        116,
        117,
        118,
        119,
        120,
        121,
        122,
        123,
        124,
        125,
        126,
        127,
        128,
        129,
        130,
        131,
        132,
        133,
        134,
        135,
        136,
        137,
        138,
        139,
        140,
        141,
        142,
        143,
        144,
        145,
        146,
        147,
        148,
        149,
        150,
        151,
        152,
        153,
        154,
        155,
        156,
        157,
        158,
        159,
        160,
        161,
        162,
        163,
        164,
        165,
        166,
        167,
        168,
        169,
        170,
        171,
        172,
        173,
        174,
        175,
        176,
        177,
        178,
        179,
        180,
        181,
        182,
        183,
        184,
        185,
        186,
        187,
        188,
        189,
        190,
        191,
        192,
        193,
        194,
        195,
        196,
        197,
        198,
        199,
        200,
        201,
        202,
        203,
        204,
        205,
        206,
        207,
        208,
        209,
        210,
        211,
        212,
        213,
        214,
        215,
        216,
        217,
        218,
        219,
        220,
        221,
        222,
        223,
        224,
        225,
        226,
        227,
        228,
        229,
        230,
        231,
        232,
        233,
        234,
        235,
        236,
        237,
        238,
        239,
        240,
        241,
        242,
        243,
        244,
        245,
        246,
        247,
        248,
        249,
        250,
        251,
        252,
        253,
        254,
        255,
        256,
        257,
        258,
        259,
        260,
        261,
        262,
        263,
        264,
        265,
        266,
        267,
        268,
        269,
        270,
        271,
        272,
        273,
        274,
        275,
        276,
        277,
        278,
        279,
        280,
        281,
        282,
        283,
        284,
        285,
        286,
        287,
        288,
        289,
        290,
        291,
        292,
        293,
        294,
        295,
        296,
        297,
        298,
        299,
        300,
        301,
        302,
        303,
        304,
        305,
        306,
        307,
        308,
        309,
        310,
        311,
        312,
        313,
        314,
        315,
        316,
        317,
        318,
        319,
        320,
        321,
        322,
        323,
        324,
        325,
        326,
        327,
        328,
        329,
        330,
        331,
        332,
        333,
        334,
        335,
        336,
        337,
        338,
        339,
        340,
        341,
        342,
        343,
        344,
        345,
        346,
        347,
        348,
        349,
        350,
        351,
        352,
        353,
        354,
        355,
        356,
        357,
        358,
        359,
        360,
        361,
        362,
        363,
        364,
        365,
        366,
        367,
        368,
        369,
        370,
        371,
        372,
        373,
        374,
        375,
        376,
        377,
        378,
        379,
        380,
        381,
        382,
        383,
        384,
        385,
        386,
        387,
        388,
        389,
        390,
        391,
        392,
        393,
        394,
        395,
        396,
        397,
        398,
        399,
        400,
        401,
        402,
        403,
        404,
        405,
        406,
        407,
        408,
        409,
        410,
        411,
        412,
        413,
        414,
        415,
        416,
        417,
        418,
        419,
        420,
        421,
        422,
        423,
        424,
        425,
        426,
        427,
        428,
        429,
        430,
        431,
        432,
        433,
        434,
        435,
        436,
        437,
        438,
        439,
        440,
        441,
        442,
        443,
        444,
        445,
        446,
        447,
        448,
        449,
        450,
        451,
        452,
        453,
        454,
        455,
        456,
        457,
        458,
        459,
        460,
        461,
        462,
        463,
        464,
        465,
        466,
        467,
        468,
        469,
        470,
        471,
        472,
        473,
        474,
        475,
        476,
        477,
        478,
        479,
        480,
        481,
        482,
        483,
        484,
        485,
        486,
        487,
        488,
        489,
        490,
        491,
        492,
        493,
        494,
        495,
        496,
        497,
        498,
        499,
        500,
        501,
        502,
        503,
        504,
        505,
        506,
        507,
        508,
        509,
        510,
        511,
        512,
        513,
        514,
        515,
        516,
        517,
        518,
        519,
        520,
        521,
        522,
        523,
        524,
        525,
        526,
        527,
        528,
        529,
        530,
        531,
        532,
        533,
        534,
        535,
        536,
        537,
        538,
        539,
        540,
        541,
        542,
        543,
        544,
        545,
        546,
        547,
        548,
        549,
        550,
        551,
        552,
        553,
        554,
        555,
        556,
        557,
        558,
        559,
        560,
        561,
        562,
        563,
        564,
        565,
        566,
        567,
        568,
        569,
        570,
        571,
        572,
        573,
        574,
        575,
        576,
        577,
        578,
        579,
        580,
        581,
        582,
        583,
        584,
        585,
        586,
        587,
        588,
        589,
        590,
        591,
        592,
        593,
        594,
        595,
        596,
        597,
        598,
        599,
        600
      ],
      "AcquisitionTime": [
        "153234.660000",
        "153235.460000",
        "153236.260000",
        "153237.060000",
        "153237.860000",
        "153238.660000",
        "153239.460000",
        "153240.260000",
        "153241.060000",
        "153241.860000",
        "153242.660000",
        "153243.460000",
        "153244.260000",
        "153245.060000",
        "153245.860000",
        "153246.660000",
        "153247.460000",
        "153248.260000",
        "153249.060000",
        "153249.860000",
        "153250.660000",
        "153251.460000",
        "153252.260000",
        "153253.060000",
        "153253.860000",
        "153254.660000",
        "153255.460000",
        "153256.260000",
        "153257.060000",
        "153257.860000",
        "153258.660000",
        "153259.460000",
        "153300.260000",
        "153301.060000",
        "153301.860000",
        "153302.660000",
        "153303.460000",
        "153304.260000",
        "153305.060000",
        "153305.860000",
        "153306.660000",
        "153307.460000",
        "153308.260000",
        "153309.060000",
        "153309.860000",
        "153310.660000",
        "153311.460000",
        "153312.260000",
        "153313.060000",
        "153313.860000",
        "153314.660000",
        "153315.460000",
        "153316.260000",
        "153317.060000",
        "153317.860000",
        "153318.660000",
        "153319.460000",
        "153320.260000",
        "153321.060000",
        "153321.860000",
        "153322.660000",
        "153323.460000",
        "153324.260000",
        "153325.060000",
        "153325.860000",
        "153326.660000",
        "153327.460000",
        "153328.260000",
        "153329.060000",
        "153329.860000",
        "153330.660000",
        "153331.460000",
        "153332.260000",
        "153333.060000",
        "153333.860000",
        "153334.660000",
        "153335.460000",
        "153336.260000",
        "153337.060000",
        "153337.860000",
        "153338.660000",
        "153339.460000",
        "153340.260000",
        "153341.060000",
        "153341.860000",
        "153342.660000",
        "153343.460000",
        "153344.260000",
        "153345.060000",
        "153345.860000",
        "153346.660000",
        "153347.460000",
        "153348.260000",
        "153349.060000",
        "153349.860000",
        "153350.660000",
        "153351.460000",
        "153352.260000",
        "153353.060000",
        "153353.860000",
        "153354.660000",
        "153355.460000",
        "153356.260000",
        "153357.060000",
        "153357.860000",
        "153358.660000",
        "153359.460000",
        "153400.260000",
        "153401.060000",
        "153401.860000",
        "153402.660000",
        "153403.460000",
        "153404.260000",
        "153405.060000",
        "153405.860000",
        "153406.660000",
        "153407.460000",
        "153408.260000",
        "153409.060000",
        "153409.860000",
        "153410.660000",
        "153411.460000",
        "153412.260000",
        "153413.060000",
        "153413.860000",
        "153414.660000",
        "153415.460000",
        "153416.260000",
        "153417.060000",
        "153417.860000",
        "153418.660000",
        "153419.460000",
        "153420.260000",
        "153421.060000",
        "153421.860000",
        "153422.660000",
        "153423.460000",
        "153424.260000",
        "153425.060000",
        "153425.860000",
        "153426.660000",
        "153427.460000",
        "153428.260000",
        "153429.060000",
        "153429.860000",
        "153430.660000",
        "153431.460000",
        "153432.260000",
        "153433.060000",
        "153433.860000",
        "153434.660000",
        "153435.460000",
        "153436.260000",
        "153437.060000",
        "153437.860000",
        "153438.660000",
        "153439.460000",
        "153440.260000",
        "153441.060000",
        "153441.860000",
        "153442.660000",
        "153443.460000",
        "153444.260000",
        "153445.060000",
        "153445.860000",
        "153446.660000",
        "153447.460000",
        "153448.260000",
        "153449.060000",
        "153449.860000",
        "153450.660000",
        "153451.460000",
        "153452.260000",
        "153453.060000",
        "153453.860000",
        "153454.660000",
        "153455.460000",
        "153456.260000",
        "153457.060000",
        "153457.860000",
        "153458.660000",
        "153459.460000",
        "153500.260000",
        "153501.060000",
        "153501.860000",
        "153502.660000",
        "153503.460000",
        "153504.260000",
        "153505.060000",
        "153505.860000",
        "153506.660000",
        "153507.460000",
        "153508.260000",
        "153509.060000",
        "153509.860000",
        "153510.660000",
        "153511.460000",
        "153512.260000",
        "153513.060000",
        "153513.860000",
        "153514.660000",
        "153515.460000",
        "153516.260000",
        "153517.060000",
        "153517.860000",
        "153518.660000",
        "153519.460000",
        "153520.260000",
        "153521.060000",
        "153521.860000",
        "153522.660000",
        "153523.460000",
        "153524.260000",
        "153525.060000",
        "153525.860000",
        "153526.660000",
        "153527.460000",
        "153528.260000",
        "153529.060000",
        "153529.860000",
        "153530.660000",
        "153531.460000",
        "153532.260000",
        "153533.060000",
        "153533.860000",
        "153534.660000",
        "153535.460000",
        "153536.260000",
        "153537.060000",
        "153537.860000",
        "153538.660000",
        "153539.460000",
        "153540.260000",
        "153541.060000",
        "153541.860000",
        "153542.660000",
        "153543.460000",
        "153544.260000",
        "153545.060000",
        "153545.860000",
        "153546.660000",
        "153547.460000",
        "153548.260000",
        "153549.060000",
        "153549.860000",
        "153550.660000",
        "153551.460000",
        "153552.260000",
        "153553.060000",
        "153553.860000",
        "153554.660000",
        "153555.460000",
        "153556.260000",
        "153557.060000",
        "153557.860000",
        "153558.660000",
        "153559.460000",
        "153600.260000",
        "153601.060000",
        "153601.860000",
        "153602.660000",
        "153603.460000",
        "153604.260000",
        "153605.060000",
        "153605.860000",
        "153606.660000",
        "153607.460000",
        "153608.260000",
        "153609.060000",
        "153609.860000",
        "153610.660000",
        "153611.460000",
        "153612.260000",
        "153613.060000",
        "153613.860000",
        "153614.660000",
        "153615.460000",
        "153616.260000",
        "153617.060000",
        "153617.860000",
        "153618.660000",
        "153619.460000",
        "153620.260000",
        "153621.060000",
        "153621.860000",
        "153622.660000",
        "153623.460000",
        "153624.260000",
        "153625.060000",
        "153625.860000",
        "153626.660000",
        "153627.460000",
        "153628.260000",
        "153629.060000",
        "153629.860000",
        "153630.660000",
        "153631.460000",
        "153632.260000",
        "153633.060000",
        "153633.860000",
        "153634.660000",
        "153635.460000",
        "153636.260000",
        "153637.060000",
        "153637.860000",
        "153638.660000",
        "153639.460000",
        "153640.260000",
        "153641.060000",
        "153641.860000",
        "153642.660000",
        "153643.460000",
        "153644.260000",
        "153645.060000",
        "153645.860000",
        "153646.660000",
        "153647.460000",
        "153648.260000",
        "153649.060000",
        "153649.860000",
        "153650.660000",
        "153651.460000",
        "153652.260000",
        "153653.060000",
        "153653.860000",
        "153654.660000",
        "153655.460000",
        "153656.260000",
        "153657.060000",
        "153657.860000",
        "153658.660000",
        "153659.460000",
        "153700.260000",
        "153701.060000",
        "153701.860000",
        "153702.660000",
        "153703.460000",
        "153704.260000",
        "153705.060000",
        "153705.860000",
        "153706.660000",
        "153707.460000",
        "153708.260000",
        "153709.060000",
        "153709.860000",
        "153710.660000",
        "153711.460000",
        "153712.260000",
        "153713.060000",
        "153713.860000",
        "153714.660000",
        "153715.460000",
        "153716.260000",
        "153717.060000",
        "153717.860000",
        "153718.660000",
        "153719.460000",
        "153720.260000",
        "153721.060000",
        "153721.860000",
        "153722.660000",
        "153723.460000",
        "153724.260000",
        "153725.060000",
        "153725.860000",
        "153726.660000",
        "153727.460000",
        "153728.260000",
        "153729.060000",
        "153729.860000",
        "153730.660000",
        "153731.460000",
        "153732.260000",
        "153733.060000",
        "153733.860000",
        "153734.660000",
        "153735.460000",
        "153736.260000",
        "153737.060000",
        "153737.860000",
        "153738.660000",
        "153739.460000",
        "153740.260000",
        "153741.060000",
        "153741.860000",
        "153742.660000",
        "153743.460000",
        "153744.260000",
        "153745.060000",
        "153745.860000",
        "153746.660000",
        "153747.460000",
        "153748.260000",
        "153749.060000",
        "153749.860000",
        "153750.660000",
        "153751.460000",
        "153752.260000",
        "153753.060000",
        "153753.860000",
        "153754.660000",
        "153755.460000",
        "153756.260000",
        "153757.060000",
        "153757.860000",
        "153758.660000",
        "153759.460000",
        "153800.260000",
        "153801.060000",
        "153801.860000",
        "153802.660000",
        "153803.460000",
        "153804.260000",
        "153805.060000",
        "153805.860000",
        "153806.660000",
        "153807.460000",
        "153808.260000",
        "153809.060000",
        "153809.860000",
        "153810.660000",
        "153811.460000",
        "153812.260000",
        "153813.060000",
        "153813.860000",
        "153814.660000",
        "153815.460000",
        "153816.260000",
        "153817.060000",
        "153817.860000",
        "153818.660000",
        "153819.460000",
        "153820.260000",
        "153821.060000",
        "153821.860000",
        "153822.660000",
        "153823.460000",
        "153824.260000",
        "153825.060000",
        "153825.860000",
        "153826.660000",
        "153827.460000",
        "153828.260000",
        "153829.060000",
        "153829.860000",
        "153830.660000",
        "153831.460000",
        "153832.260000",
        "153833.060000",
        "153833.860000",
        "153834.660000",
        "153835.460000",
        "153836.260000",
        "153837.060000",
        "153837.860000",
        "153838.660000",
        "153839.460000",
        "153840.260000",
        "153841.060000",
        "153841.860000",
        "153842.660000",
        "153843.460000",
        "153844.260000",
        "153845.060000",
        "153845.860000",
        "153846.660000",
        "153847.460000",
        "153848.260000",
        "153849.060000",
        "153849.860000",
        "153850.660000",
        "153851.460000",
        "153852.260000",
        "153853.060000",
        "153853.860000",
        "153854.660000",
        "153855.460000",
        "153856.260000",
        "153857.060000",
        "153857.860000",
        "153858.660000",
        "153859.460000",
        "153900.260000",
        "153901.060000",
        "153901.860000",
        "153902.660000",
        "153903.460000",
        "153904.260000",
        "153905.060000",
        "153905.860000",
        "153906.660000",
        "153907.460000",
        "153908.260000",
        "153909.060000",
        "153909.860000",
        "153910.660000",
        "153911.460000",
        "153912.260000",
        "153913.060000",
        "153913.860000",
        "153914.660000",
        "153915.460000",
        "153916.260000",
        "153917.060000",
        "153917.860000",
        "153918.660000",
        "153919.460000",
        "153920.260000",
        "153921.060000",
        "153921.860000",
        "153922.660000",
        "153923.460000",
        "153924.260000",
        "153925.060000",
        "153925.860000",
        "153926.660000",
        "153927.460000",
        "153928.260000",
        "153929.060000",
        "153929.860000",
        "153930.660000",
        "153931.460000",
        "153932.260000",
        "153933.060000",
        "153933.860000",
        "153934.660000",
        "153935.460000",
        "153936.260000",
        "153937.060000",
        "153937.860000",
        "153938.660000",
        "153939.460000",
        "153940.260000",
        "153941.060000",
        "153941.860000",
        "153942.660000",
        "153943.460000",
        "153944.260000",
        "153945.060000",
        "153945.860000",
        "153946.660000",
        "153947.460000",
        "153948.260000",
        "153949.060000",
        "153949.860000",
        "153950.660000",
        "153951.460000",
        "153952.260000",
        "153953.060000",
        "153953.860000",
        "153954.660000",
        "153955.460000",
        "153956.260000",
        "153957.060000",
        "153957.860000",
        "153958.660000",
        "153959.460000",
        "154000.260000",
        "154001.060000",
        "154001.860000",
        "154002.660000",
        "154003.460000",
        "154004.260000",
        "154005.060000",
        "154005.860000",
        "154006.660000",
        "154007.460000",
        "154008.260000",
        "154009.060000",
        "154009.860000",
        "154010.660000",
        "154011.460000",
        "154012.260000",
        "154013.060000",
        "154013.860000",
        "154014.660000",
        "154015.460000",
        "154016.260000",
        "154017.060000",
        "154017.860000",
        "154018.660000",
        "154019.460000",
        "154020.260000",
        "154021.060000",
        "154021.860000",
        "154022.660000",
        "154023.460000",
        "154024.260000",
        "154025.060000",
        "154025.860000",
        "154026.660000",
        "154027.460000",
        "154028.260000",
        "154029.060000",
        "154029.860000",
        "154030.660000",
        "154031.460000",
        "154032.260000",
        "154033.060000",
        "154033.860000"
      ],
      "ContentTime": [
        "153326.028000",
        "153326.031000",
        "153326.034000",
        "153326.037000",
        "153326.040000",
        "153326.043000",
        "153326.046000",
        "153326.049000",
        "153326.052000",
        "153326.055000",
        "153326.058000",
        "153326.061000",
        "153326.064000",
        "153326.067000",
        "153326.070000",
        "153326.073000",
        "153326.075000",
        "153326.078000",
        "153326.081000",
        "153326.084000",
        "153326.087000",
        "153326.090000",
        "153326.093000",
        "153326.096000",
        "153326.099000",
        "153326.101000",
        "153326.104000",
        "153326.107000",
        "153326.110000",
        "153326.113000",
        "153326.137000",
        "153326.140000",
        "153326.143000",
        "153326.146000",
        "153326.149000",
        "153326.151000",
        "153326.157000",
        "153326.160000",
        "153326.163000",
        "153326.166000",
        "153326.169000",
        "153326.172000",
        "153326.175000",
        "153326.178000",
        "153326.181000",
        "153326.184000",
        "153326.186000",
        "153326.190000",
        "153326.192000",
        "153326.195000",
        "153326.198000",
        "153326.201000",
        "153326.204000",
        "153326.207000",
        "153326.210000",
        "153345.991000",
        "153345.994000",
        "153345.997000",
        "153346.001000",
        "153346.004000",
        "153346.006000",
        "153346.009000",
        "153346.012000",
        "153346.015000",
        "153346.018000",
        "153346.021000",
        "153346.024000",
        "153346.027000",
        "153346.030000",
        "153346.033000",
        "153346.035000",
        "153346.038000",
        "153346.041000",
        "153346.044000",
        "153346.047000",
        "153346.050000",
        "153346.053000",
        "153346.056000",
        "153346.059000",
        "153346.062000",
        "153346.065000",
        "153346.067000",
        "153346.070000",
        "153346.074000",
        "153346.079000",
        "153346.082000",
        "153346.085000",
        "153405.992000",
        "153405.995000",
        "153405.998000",
        "153406.002000",
        "153406.005000",
        "153406.008000",
        "153406.011000",
        "153406.014000",
        "153406.017000",
        "153406.019000",
        "153406.022000",
        "153406.025000",
        "153406.028000",
        "153406.032000",
        "153406.045000",
        "153406.049000",
        "153406.051000",
        "153406.054000",
        "153406.058000",
        "153406.061000",
        "153406.064000",
        "153406.067000",
        "153406.070000",
        "153406.073000",
        "153406.076000",
        "153425.991000",
        "153425.994000",
        "153425.997000",
        "153426.001000",
        "153426.004000",
        "153426.007000",
        "153426.010000",
        "153426.013000",
        "153426.015000",
        "153426.018000",
        "153426.021000",
