{
  "AcquisitionMatrixPE": 140,
  "AcquisitionNumber": 1,
  "AcquisitionTime": "09:25:38.420000",
  "BandwidthPerPixelPhaseEncode": 10.352,
  "BaseResolution": 140,
  "BodyPartExamined": "BRAIN",
  "CoilCombinationMethod": "Sum of Squares",
  "ConsistencyInfo": "N4_VE11C_LATEST_20160120",
  "ConversionSoftware": "dcm2niix",
  "ConversionSoftwareVersion": "v1.0.20220720",
  "DerivedVendorReportedEchoSpacing": 0.000689998,
  "DeviceSerialNumber": "67026",
  "DiffusionScheme": "Monopolar",
  "DwellTime": 2.1e-06,
  "EchoTime": 0.0892,
  "EchoTrainLength": 105,
  "EffectiveEchoSpacing": 0.000689998,
  "FlipAngle": 78,
  "HeudiconvVersion": "0.11.4",
  "ImageComments": "Unaliased MB4/PE3/LB SENSE1",
  "ImageOrientationPatientDICOM": [
    0.991908,
    0.0503759,
    -0.116535,
    -0.079807,
    0.961285,
    -0.263745
  ],
  "ImageOrientationText": "Tra>Cor(-15.8)>Sag(-5.7)",
  "ImageType": [
    "ORIGINAL",
    "PRIMARY",
    "DIFFUSION",
    "NONE",
    "MB",
    "ND",
    "MOSAIC"
  ],
  "ImagingFrequency": 123.227,
  "InPlanePhaseEncodingDirectionDICOM": "COL",
  "InstitutionAddress": "13th St. 149,Charlestown,MA,US,02129",
  "InstitutionName": "MGH PrismaFit-Bay4",
  "InstitutionalDepartmentName": "Martinos Center",
  "MRAcquisitionType": "2D",
  "MagneticFieldStrength": 3,
  "Manufacturer": "Siemens",
  "ManufacturersModelName": "Prisma_fit",
  "MatrixCoilMode": "SENSE",
  "Modality": "MR",
  "MultibandAccelerationFactor": 4,
  "NonlinearGradientCorrection": false,
  "PartialFourier": 0.75,
  "PatientPosition": "HFS",
  "PercentPhaseFOV": 100,
  "PercentSampling": 100,
  "PhaseEncodingDirection": "j-",
  "PhaseEncodingSteps": 105,
  "PhaseResolution": 1,
  "PixelBandwidth": 1700,
  "ProcedureStepDescription": "INVESTIGATORS^Greve",
  "ProtocolName": "dMRI_dir98_AP",
  "PulseSequenceDetails": "%CustomerSeq%\\hcp_mbep2d_diff",
  "ReceiveCoilActiveElements": "HEA;HEP",
  "ReceiveCoilName": "Head_32",
  "ReconMatrixPE": 140,
  "RepetitionTime": 3.23,
  "SAR": 0.161755,
  "ScanOptions": "PFP\\EXT",
  "ScanningSequence": "EP",
  "SequenceName": "ep_b5#1",
  "SequenceVariant": "SK\\SS",
  "SeriesDescription": "dMRI_dir98_AP",
  "SeriesNumber": 42,
  "ShimSetting": [
    -1303,
    -10396,
    -10244,
    262,
    111,
    50,
    -2,
    53
  ],
  "SliceThickness": 1.5,
  "SliceTiming": [
    0,
    1.675,
    0.14,
    1.815,
    0.28,
    1.955,
    0.42,
    2.0925,
    0.5575,
    2.2325,
    0.6975,
    2.3725,
    0.8375,
    2.5125,
    0.9775,
    2.6525,
    1.1175,
    2.7925,
    1.255,
    2.93,
    1.395,
    3.07,
    1.535,
    0,
    1.675,
    0.14,
    1.815,
    0.28,
    1.955,
    0.42,
    2.0925,
    0.5575,
    2.2325,
    0.6975,
    2.3725,
    0.8375,
    2.5125,
    0.9775,
    2.6525,
    1.1175,
    2.7925,
    1.255,
    2.93,
    1.395,
    3.07,
    1.535,
    0,
    1.675,
    0.14,
    1.815,
    0.28,
    1.955,
    0.42,
    2.0925,
    0.5575,
    2.2325,
    0.6975,
    2.3725,
    0.8375,
    2.5125,
    0.9775,
    2.6525,
    1.1175,
    2.7925,
    1.255,
    2.93,
    1.395,
    3.07,
    1.535,
    0,
    1.675,
    0.14,
    1.815,
    0.28,
    1.955,
    0.42,
    2.0925,
    0.5575,
    2.2325,
    0.6975,
    2.3725,
    0.8375,
    2.5125,
    0.9775,
    2.6525,
    1.1175,
    2.7925,
    1.255,
    2.93,
    1.395,
    3.07,
    1.535
  ],
  "SoftwareVersions": "syngo MR E11",
  "SpacingBetweenSlices": 1.5,
  "StationName": "BAY4OC",
  "TotalReadoutTime": 0.0959097,
  "TxRefAmp": 248.66,
  "WipMemBlock": "d2c243de-b794-4191-8a69-7fd59228cf0a||Sequence: ve11c/master r/5b0256d+; Dec  9 2016 09:48:43 by eja",
  "dcmmeta_affine": [
    [
      -1.487862229347229,
      -0.11971048265695572,
      -0.14810563623905182,
      115.59261322021484
    ],
    [
      -0.07556386291980743,
      1.4419277906417847,
      -0.40636709332466125,
      -49.54350280761719
    ],
    [
      -0.17480270564556122,
      0.39561787247657776,
      1.4362905025482178,
      -72.68242645263672
    ],
    [
      0,
      0,
      0,
      1
    ]
  ],
  "dcmmeta_reorient_transform": [
    [
      0,
      -1,
      0,
      139
    ],
    [
      1,
      0,
      0,
      0
    ],
    [
      0,
      0,
      1,
      0
    ],
    [
      0,
      0,
      0,
      1
    ]
  ],
  "dcmmeta_shape": [
    140,
    140,
    92,
    99
  ],
  "dcmmeta_slice_dim": 2,
  "dcmmeta_version": 0.6,
  "time": {
    "samples": {
      "AcquisitionNumber": [
        1,
        2,
        3,
        4,
        5,
        6,
        7,
        8,
        9,
        10,
        11,
        12,
        13,
        14,
        15,
        16,
        17,
        18,
        19,
        20,
        21,
        22,
        23,
        24,
        25,
        26,
        27,
        28,
        29,
        30,
        31,
        32,
        33,
        34,
        35,
        36,
        37,
        38,
        39,
        40,
        41,
        42,
        43,
        44,
        45,
        46,
        47,
        48,
        49,
        50,
        51,
        52,
        53,
        54,
        55,
        56,
        57,
        58,
        59,
        60,
        61,
        62,
        63,
        64,
        65,
        66,
        67,
        68,
        69,
        70,
        71,
        72,
        73,
        74,
        75,
        76,
        77,
        78,
        79,
        80,
        81,
        82,
        83,
        84,
        85,
        86,
        87,
        88,
        89,
        90,
        91,
        92,
        93,
        94,
        95,
        96,
        97,
        98,
        99
      ],
      "AcquisitionTime": [
        "092538.420000",
        "092541.650000",
        "092544.880000",
        "092548.110000",
        "092551.340000",
        "092554.570000",
        "092557.800000",
        "092601.030000",
        "092604.260000",
        "092607.490000",
        "092610.720000",
        "092613.950000",
        "092617.180000",
        "092620.410000",
        "092623.640000",
        "092626.870000",
        "092630.100000",
        "092633.330000",
        "092636.560000",
        "092639.790000",
        "092643.020000",
        "092646.250000",
        "092649.480000",
        "092652.710000",
        "092655.940000",
        "092659.170000",
        "092702.400000",
        "092705.630000",
        "092708.860000",
        "092712.090000",
        "092715.320000",
        "092718.550000",
        "092721.780000",
        "092725.010000",
        "092728.240000",
        "092731.470000",
        "092734.700000",
        "092737.930000",
        "092741.160000",
        "092744.390000",
        "092747.620000",
        "092750.850000",
        "092754.080000",
        "092757.310000",
        "092800.540000",
        "092803.770000",
        "092807.000000",
        "092810.230000",
        "092813.460000",
        "092816.690000",
        "092819.920000",
        "092823.150000",
        "092826.380000",
        "092829.610000",
        "092832.840000",
        "092836.070000",
        "092839.300000",
        "092842.530000",
        "092845.760000",
        "092848.990000",
        "092852.220000",
        "092855.450000",
        "092858.680000",
        "092901.910000",
        "092905.140000",
        "092908.370000",
        "092911.600000",
        "092914.830000",
        "092918.060000",
        "092921.290000",
        "092924.520000",
        "092927.750000",
        "092930.980000",
        "092934.210000",
        "092937.440000",
        "092940.670000",
        "092943.900000",
        "092947.130000",
        "092950.360000",
        "092953.590000",
        "092956.820000",
        "093000.050000",
        "093003.280000",
        "093006.510000",
        "093009.740000",
        "093012.970000",
        "093016.200000",
        "093019.430000",
        "093022.660000",
        "093025.890000",
        "093029.120000",
        "093032.350000",
        "093035.580000",
        "093038.810000",
        "093042.040000",
        "093045.270000",
        "093048.500000",
        "093051.730000",
        "093054.960000"
      ],
      "ContentTime": [
        "092701.831000",
        "092701.835000",
        "092701.839000",
        "092701.843000",
        "092701.855000",
        "092701.858000",
        "092701.862000",
        "092701.865000",
        "092701.868000",
        "092701.872000",
        "092701.875000",
        "092701.879000",
        "092701.882000",
        "092701.885000",
        "092701.892000",
        "092701.896000",
        "092701.899000",
        "092701.902000",
        "092701.906000",
        "092701.909000",
        "092701.912000",
        "092701.915000",
        "092701.919000",
        "092701.922000",
        "092701.926000",
        "092721.782000",
        "092721.786000",
        "092721.789000",
        "092721.793000",
        "092721.796000",
        "092721.799000",
        "092841.782000",
        "092841.786000",
        "092841.789000",
        "092841.793000",
        "092841.796000",
        "092841.799000",
        "092841.803000",
        "092841.806000",
        "092841.809000",
        "092841.813000",
        "092841.816000",
        "092841.819000",
        "092841.822000",
        "092841.826000",
        "092841.829000",
        "092841.832000",
        "092841.836000",
        "092841.839000",
        "092841.848000",
        "092841.851000",
        "092841.855000",
        "092841.858000",
        "092841.862000",
        "092841.865000",
        "092841.868000",
        "093001.784000",
        "093001.787000",
        "093001.791000",
        "093001.794000",
        "093001.798000",
        "093001.801000",
        "093001.804000",
        "093001.827000",
        "093001.830000",
        "093001.834000",
        "093001.837000",
        "093001.840000",
        "093001.844000",
        "093001.847000",
        "093001.850000",
        "093001.854000",
        "093001.857000",
        "093001.861000",
        "093001.864000",
        "093001.867000",
        "093001.871000",
        "093001.874000",
        "093001.877000",
        "093001.880000",
        "093001.884000",
        "093058.638000",
        "093058.642000",
        "093058.645000",
        "093058.648000",
        "093058.652000",
        "093058.655000",
        "093058.658000",
        "093058.662000",
        "093058.665000",
        "093058.669000",
        "093058.672000",
        "093058.676000",
        "093058.679000",
        "093058.682000",
        "093058.686000",
        "093058.689000",
        "093058.692000",
        "093058.696000"
      ],
      "InstanceCreationTime": [
        "092701.831000",
        "092701.835000",
        "092701.839000",
        "092701.843000",
        "092701.855000",
        "092701.858000",
        "092701.862000",
        "092701.865000",
        "092701.868000",
        "092701.872000",
        "092701.875000",
        "092701.879000",
        "092701.882000",
        "092701.885000",
        "092701.892000",
        "092701.896000",
        "092701.899000",
        "092701.902000",
        "092701.906000",
        "092701.909000",
        "092701.912000",
        "092701.915000",
        "092701.919000",
        "092701.922000",
        "092701.926000",
        "092721.782000",
        "092721.786000",
        "092721.789000",
        "092721.793000",
        "092721.796000",
        "092721.799000",
        "092841.782000",
        "092841.786000",
        "092841.789000",
        "092841.793000",
        "092841.796000",
        "092841.799000",
        "092841.803000",
        "092841.806000",
        "092841.809000",
        "092841.813000",
        "092841.816000",
        "092841.819000",
        "092841.822000",
        "092841.826000",
        "092841.829000",
        "092841.832000",
        "092841.836000",
        "092841.839000",
        "092841.848000",
        "092841.851000",
        "092841.855000",
        "092841.858000",
        "092841.862000",
        "092841.865000",
        "092841.868000",
        "093001.784000",
        "093001.787000",
        "093001.791000",
        "093001.794000",
        "093001.798000",
        "093001.801000",
        "093001.804000",
        "093001.827000",
        "093001.830000",
        "093001.834000",
        "093001.837000",
        "093001.840000",
        "093001.844000",
        "093001.847000",
        "093001.850000",
        "093001.854000",
        "093001.857000",
        "093001.861000",
        "093001.864000",
        "093001.867000",
        "093001.871000",
        "093001.874000",
        "093001.877000",
        "093001.880000",
        "093001.884000",
        "093058.638000",
        "093058.642000",
        "093058.645000",
        "093058.648000",
        "093058.652000",
        "093058.655000",
        "093058.658000",
        "093058.662000",
        "093058.665000",
        "093058.669000",
        "093058.672000",
        "093058.676000",
        "093058.679000",
        "093058.682000",
        "093058.686000",
        "093058.689000",
        "093058.692000",
        "093058.696000"
      ],
      "InstanceNumber": [
        1,
        2,
        3,
        4,
        5,
        6,
        7,
        8,
        9,
        10,
        11,
        12,
        13,
        14,
        15,
        16,
        17,
        18,
        19,
        20,
        21,
        22,
        23,
        24,
        25,
        26,
        27,
        28,
        29,
        30,
        31,
        32,
        33,
        34,
        35,
        36,
        37,
        38,
        39,
        40,
        41,
        42,
        43,
        44,
        45,
        46,
        47,
        48,
        49,
        50,
        51,
        52,
        53,
        54,
        55,
        56,
        57,
        58,
        59,
        60,
        61,
        62,
        63,
        64,
        65,
        66,
        67,
        68,
        69,
        70,
        71,
        72,
        73,
        74,
        75,
        76,
        77,
        78,
        79,
        80,
        81,
        82,
        83,
        84,
        85,
        86,
        87,
        88,
        89,
        90,
        91,
        92,
        93,
        94,
        95,
        96,
        97,
        98,
        99
      ],
      "LargestImagePixelValue": [
        25485,
        27389,
        5028,
        2037,
        5285,
        2161,
        4697,
        2795,
        4911,
        2454,
        4331,
        2000,
        4423,
        2229,
        5105,
        2750,
        4991,
        26536,
        2444,
        4950,
        2364,
        4742,
        2984,
        5546,
        2070,
        4770,
        2339,
        4482,
        2758,
        4385,
        2621,
        5407,
        2118,
        28300,
        4496,
        2440,
        5326,
        2309,
        4540,
        2437,
        4339,
        2523,
        4816,
        2178,
        5395,
        2320,
        5050,
        2484,
        5185,
        25596,
        2402,
        4460,
        2254,
        4517,
        2970,
        4605,
        2251,
        4983,
        2428,
        5442,
        2390,
        4953,
        2521,
        4903,
        2344,
        26286,
        4697,
        2251,
        4917,
        2355,
        4409,
        2353,
        5519,
        2299,
        4417,
        2100,
        4915,
        1926,
        4261,
        2520,
        4813,
        26914,
        2278,
        4935,
        2029,
        4498,
        2895,
        5208,
        1929,
        4413,
        2255,
        5419,
        1925,
        4607,
        2525,
        4591,
        2905,
        4630,
        2204
      ],
      "SequenceName": [
        "ep_b5#1",
        "ep_b5#1",
        "ep_b1490#2",
        "ep_b2990#3",
        "ep_b1495#4",
        "ep_b3005#5",
        "ep_b1500#6",
        "ep_b2985#7",
        "ep_b1495#8",
        "ep_b3005#9",
        "ep_b1490#10",
        "ep_b2995#11",
        "ep_b1490#12",
        "ep_b2985#13",
        "ep_b1500#14",
        "ep_b2985#15",
        "ep_b1500#16",
        "ep_b5#17",
        "ep_b3005#18",
        "ep_b1490#19",
        "ep_b2995#20",
        "ep_b1500#21",
        "ep_b3000#22",
        "ep_b1495#23",
        "ep_b3005#24",
        "ep_b1490#25",
        "ep_b2985#26",
        "ep_b1505#27",
        "ep_b2995#28",
        "ep_b1500#29",
        "ep_b3005#30",
        "ep_b1490#31",
        "ep_b3005#32",
        "ep_b5#33",
        "ep_b1505#34",
        "ep_b3000#35",
        "ep_b1490#36",
        "ep_b2980#37",
        "ep_b1495#38",
        "ep_b2995#39",
        "ep_b1500#40",
        "ep_b2995#41",
        "ep_b1505#42",
        "ep_b2985#43",
        "ep_b1495#44",
        "ep_b3000#45",
        "ep_b1495#46",
        "ep_b3000#47",
        "ep_b1490#48",
        "ep_b5#49",
        "ep_b3005#50",
        "ep_b1500#51",
        "ep_b2990#52",
        "ep_b1505#53",
        "ep_b2995#54",
        "ep_b1495#55",
        "ep_b2990#56",
        "ep_b1490#57",
        "ep_b3000#58",
        "ep_b1500#59",
        "ep_b3000#60",
        "ep_b1505#61",
        "ep_b2985#62",
        "ep_b1500#63",
        "ep_b2990#64",
        "ep_b5#65",
        "ep_b1505#66",
        "ep_b3005#67",
        "ep_b1495#68",
        "ep_b3000#69",
        "ep_b1505#70",
        "ep_b3005#71",
        "ep_b1500#72",
        "ep_b3005#73",
        "ep_b1490#74",
        "ep_b2995#75",
        "ep_b1490#76",
        "ep_b2995#77",
        "ep_b1505#78",
        "ep_b3000#79",
        "ep_b1490#80",
        "ep_b5#81",
        "ep_b2985#82",
        "ep_b1500#83",
        "ep_b2985#84",
        "ep_b1490#85",
        "ep_b2995#86",
        "ep_b1495#87",
        "ep_b2995#88",
        "ep_b1490#89",
        "ep_b2980#90",
        "ep_b1500#91",
        "ep_b3000#92",
        "ep_b1490#93",
        "ep_b3005#94",
        "ep_b1495#95",
        "ep_b2990#96",
        "ep_b1500#97",
        "ep_b3000#98"
      ],
      "TriggerTime": [
        18780,
        22010,
        25240,
        28470,
        31700,
        34930,
        38160,
        41390,
        44620,
        47850,
        51080,
        54310,
        57540,
        60770,
        64000,
        67230,
        70460,
        73690,
        76920,
        80150,
        83380,
        86610,
        89840,
        93070,
        96300,
        99530,
        102760,
        105990,
        109220,
        112450,
        115680,
        118910,
        122140,
        125370,
        128600,
        131830,
        135060,
        138290,
        141520,
        144750,
        147980,
        151210,
        154440,
        157670,
        160900,
        164130,
        167360,
        170590,
        173820,
        177050,
        180280,
        183510,
        186740,
        189970,
        193200,
        196430,
        199660,
        202890,
        206120,
        209350,
        212580,
        215810,
        219040,
        222270,
        225500,
        228730,
        231960,
        235190,
        238420,
        241650,
        244880,
        248110,
        251340,
        254570,
        257800,
        261030,
        264260,
        267490,
        270720,
        273950,
        277180,
        280410,
        283640,
        286870,
        290100,
        293330,
        296560,
        299790,
        303020,
        306250,
        309480,
        312710,
        315940,
        319170,
        322400,
        325630,
        328860,
        332090,
        335320
      ],
      "WindowCenter": [
        4065,
        4136,
        1380,
        726,
        1394,
        775,
        1364,
        817,
        1367,
        791,
        1354,
        744,
        1379,
        783,
        1381,
        818,
        1362,
        4130,
        801,
        1380,
        764,
        1360,
        820,
        1391,
        740,
        1364,
        763,
        1351,
        818,
        1348,
        805,
        1393,
        777,
        4137,
        1352,
        789,
        1378,
        776,
        1349,
        794,
        1363,
        790,
        1365,
        779,
        1393,
        765,
        1377,
        808,
        1379,
        4106,
        802,
        1361,
        767,
        1349,
        820,
        1351,
        780,
        1390,
        793,
        1390,
        763,
        1369,
        802,
        1378,
        774,
        4105,
        1364,
        777,
        1361,
        767,
        1350,
        780,
        1392,
        764,
        1351,
        766,
        1379,
        742,
        1335,
        791,
        1362,
        4083,
        773,
        1348,
        723,
        1365,
        819,
        1377,
        730,
        1353,
        777,
        1378,
        726,
        1379,
        805,
        1349,
        817,
        1353,
        774
      ],
      "WindowWidth": [
        9363,
        9492,
        3587,
        2010,
        3618,
        2127,
        3556,
        2231,
        3562,
        2172,
        3535,
        2061,
        3582,
        2159,
        3595,
        2236,
        3546,
        9491,
        2192,
        3588,
        2109,
        3534,
        2243,
        3602,
        2048,
        3553,
        2101,
        3520,
        2237,
        3512,
        2206,
        3610,
        2134,
        9494,
        3524,
        2166,
        3577,
        2133,
        3519,
        2181,
        3543,
        2170,
        3557,
        2141,
        3610,
        2109,
        3575,
        2216,
        3584,
        9450,
        2193,
        3535,
        2117,
        3520,
        2245,
        3521,
        2147,
        3599,
        2178,
        3602,
        2102,
        3572,
        2194,
        3585,
        2142,
        9445,
        3548,
        2136,
        3537,
        2115,
        3517,
        2147,
        3611,
        2106,
        3526,
        2112,
        3580,
        2053,
        3484,
        2174,
        3543,
        9385,
        2122,
        3515,
        2002,
        3553,
        2241,
        3573,
        2025,
        3531,
        2134,
        3577,
        2013,
        3586,
        2205,
        3521,
        2233,
        3533,
        2125
      ]
    },
    "slices": {}
  }
}
