{
  "AcquisitionMatrixPE": 140,
  "AcquisitionNumber": 1,
  "AcquisitionTime": "09:01:42.290000",
  "BandwidthPerPixelPhaseEncode": 10.352,
  "BaseResolution": 140,
  "BodyPartExamined": "BRAIN",
  "CoilCombinationMethod": "Sum of Squares",
  "ConsistencyInfo": "N4_VE11C_LATEST_20160120",
  "ConversionSoftware": "dcm2niix",
  "ConversionSoftwareVersion": "v1.0.20220720",
  "DerivedVendorReportedEchoSpacing": 0.000689998,
  "DeviceSerialNumber": "67026",
  "DiffusionScheme": "Monopolar",
  "DwellTime": 2.1e-06,
  "EchoTime": 0.0892,
  "EchoTrainLength": 105,
  "EffectiveEchoSpacing": 0.000689998,
  "FlipAngle": 78,
  "HeudiconvVersion": "0.11.4",
  "ImageComments": "Unaliased MB4/PE3/LB SENSE1",
  "ImageOrientationPatientDICOM": [
    0.999932,
    0.0083806,
    0.00812791,
    -0.00366497,
    0.886342,
    -0.463017
  ],
  "ImageOrientationText": "Tra>Cor(-27.6)>Sag(0.6)",
  "ImageType": [
    "ORIGINAL",
    "PRIMARY",
    "DIFFUSION",
    "NONE",
    "MB",
    "ND",
    "MOSAIC"
  ],
  "ImagingFrequency": 123.221,
  "InPlanePhaseEncodingDirectionDICOM": "COL",
  "InstitutionAddress": "13th St. 149,Charlestown,MA,US,02129",
  "InstitutionName": "Martinos Center Bay 4 Prisma",
  "InstitutionalDepartmentName": "Martinos Center",
  "MRAcquisitionType": "2D",
  "MagneticFieldStrength": 3,
  "Manufacturer": "Siemens",
  "ManufacturersModelName": "Prisma_fit",
  "MatrixCoilMode": "SENSE",
  "Modality": "MR",
  "MultibandAccelerationFactor": 4,
  "NonlinearGradientCorrection": false,
  "PartialFourier": 0.75,
  "PatientPosition": "HFS",
  "PercentPhaseFOV": 100,
  "PercentSampling": 100,
  "PhaseEncodingDirection": "j-",
  "PhaseEncodingSteps": 105,
  "PhaseResolution": 1,
  "PixelBandwidth": 1700,
  "ProcedureStepDescription": "INVESTIGATORS^Greve",
  "ProtocolName": "dMRI_dir98_AP",
  "PulseSequenceDetails": "%CustomerSeq%\\hcp_mbep2d_diff",
  "ReceiveCoilActiveElements": "HEA;HEP",
  "ReceiveCoilName": "Head_32",
  "ReconMatrixPE": 140,
  "RepetitionTime": 3.23,
  "SAR": 0.179206,
  "ScanOptions": "PFP\\EXT",
  "ScanningSequence": "EP",
  "SequenceName": "ep_b5#1",
  "SequenceVariant": "SK\\SS",
  "SeriesDescription": "dMRI_dir98_AP",
  "SeriesNumber": 42,
  "ShimSetting": [
    -1278,
    -10348,
    -10245,
    344,
    36,
    72,
    -145,
    0
  ],
  "SliceThickness": 1.5,
  "SliceTiming": [
    0,
    1.675,
    0.14,
    1.815,
    0.28,
    1.955,
    0.42,
    2.095,
    0.56,
    2.2325,
    0.6975,
    2.3725,
    0.8375,
    2.5125,
    0.9775,
    2.6525,
    1.1175,
    2.7925,
    1.2575,
    2.9325,
    1.395,
    3.07,
    1.535,
    0,
    1.675,
    0.14,
    1.815,
    0.28,
    1.955,
    0.42,
    2.095,
    0.56,
    2.2325,
    0.6975,
    2.3725,
    0.8375,
    2.5125,
    0.9775,
    2.6525,
    1.1175,
    2.7925,
    1.2575,
    2.9325,
    1.395,
    3.07,
    1.535,
    0,
    1.675,
    0.14,
    1.815,
    0.28,
    1.955,
    0.42,
    2.095,
    0.56,
    2.2325,
    0.6975,
    2.3725,
    0.8375,
    2.5125,
    0.9775,
    2.6525,
    1.1175,
    2.7925,
    1.2575,
    2.9325,
    1.395,
    3.07,
    1.535,
    0,
    1.675,
    0.14,
    1.815,
    0.28,
    1.955,
    0.42,
    2.095,
    0.56,
    2.2325,
    0.6975,
    2.3725,
    0.8375,
    2.5125,
    0.9775,
    2.6525,
    1.1175,
    2.7925,
    1.2575,
    2.9325,
    1.395,
    3.07,
    1.535
  ],
  "SoftwareVersions": "syngo MR E11",
  "SpacingBetweenSlices": 1.5,
  "StationName": "BAY4OC",
  "TotalReadoutTime": 0.0959097,
  "TxRefAmp": 272.6,
  "WipMemBlock": "888c0abc-1f25-4ced-af0f-1c78fcb037da||Sequence: ve11c/master r/5b0256d+; Dec  9 2016 09:48:43 by eja",
  "dcmmeta_affine": [
    [
      -1.4998977184295654,
      -0.00549745187163353,
      0.01662670075893402,
      105.22455596923828
    ],
    [
      -0.012570898979902267,
      1.3295129537582397,
      -0.6944330334663391,
      -44.979583740234375
    ],
    [
      0.01219186745584011,
      0.6945250630378723,
      1.3294684886932373,
      -126.69562530517578
    ],
    [
      0,
      0,
      0,
      1
    ]
  ],
  "dcmmeta_reorient_transform": [
    [
      0,
      -1,
      0,
      139
    ],
    [
      1,
      0,
      0,
      0
    ],
    [
      0,
      0,
      1,
      0
    ],
    [
      0,
      0,
      0,
      1
    ]
  ],
  "dcmmeta_shape": [
    140,
    140,
    92,
    99
  ],
  "dcmmeta_slice_dim": 2,
  "dcmmeta_version": 0.6,
  "time": {
    "samples": {
      "AcquisitionNumber": [
        1,
        2,
        3,
        4,
        5,
        6,
        7,
        8,
        9,
        10,
        11,
        12,
        13,
        14,
        15,
        16,
        17,
        18,
        19,
        20,
        21,
        22,
        23,
        24,
        25,
        26,
        27,
        28,
        29,
        30,
        31,
        32,
        33,
        34,
        35,
        36,
        37,
        38,
        39,
        40,
        41,
        42,
        43,
        44,
        45,
        46,
        47,
        48,
        49,
        50,
        51,
        52,
        53,
        54,
        55,
        56,
        57,
        58,
        59,
        60,
        61,
        62,
        63,
        64,
        65,
        66,
        67,
        68,
        69,
        70,
        71,
        72,
        73,
        74,
        75,
        76,
        77,
        78,
        79,
        80,
        81,
        82,
        83,
        84,
        85,
        86,
        87,
        88,
        89,
        90,
        91,
        92,
        93,
        94,
        95,
        96,
        97,
        98,
        99
      ],
      "AcquisitionTime": [
        "090142.290000",
        "090145.520000",
        "090148.750000",
        "090151.980000",
        "090155.210000",
        "090158.440000",
        "090201.670000",
        "090204.900000",
        "090208.130000",
        "090211.360000",
        "090214.590000",
        "090217.820000",
        "090221.050000",
        "090224.280000",
        "090227.510000",
        "090230.740000",
        "090233.970000",
        "090237.200000",
        "090240.430000",
        "090243.660000",
        "090246.890000",
        "090250.120000",
        "090253.350000",
        "090256.580000",
        "090259.810000",
        "090303.040000",
        "090306.270000",
        "090309.500000",
        "090312.730000",
        "090315.960000",
        "090319.190000",
        "090322.420000",
        "090325.650000",
        "090328.880000",
        "090332.110000",
        "090335.340000",
        "090338.570000",
        "090341.800000",
        "090345.030000",
        "090348.260000",
        "090351.490000",
        "090354.720000",
        "090357.950000",
        "090401.180000",
        "090404.410000",
        "090407.640000",
        "090410.870000",
        "090414.100000",
        "090417.330000",
        "090420.560000",
        "090423.790000",
        "090427.020000",
        "090430.250000",
        "090433.480000",
        "090436.710000",
        "090439.940000",
        "090443.170000",
        "090446.400000",
        "090449.630000",
        "090452.860000",
        "090456.090000",
        "090459.320000",
        "090502.550000",
        "090505.780000",
        "090509.010000",
        "090512.240000",
        "090515.470000",
        "090518.700000",
        "090521.930000",
        "090525.160000",
        "090528.390000",
        "090531.620000",
        "090534.850000",
        "090538.080000",
        "090541.310000",
        "090544.540000",
        "090547.770000",
        "090551.000000",
        "090554.230000",
        "090557.460000",
        "090600.690000",
        "090603.920000",
        "090607.150000",
        "090610.380000",
        "090613.610000",
        "090616.840000",
        "090620.070000",
        "090623.300000",
        "090626.530000",
        "090629.760000",
        "090632.990000",
        "090636.220000",
        "090639.450000",
        "090642.680000",
        "090645.910000",
        "090649.140000",
        "090652.370000",
        "090655.600000",
        "090658.830000"
      ],
      "ContentTime": [
        "090253.007000",
        "090253.011000",
        "090253.014000",
        "090253.018000",
        "090253.021000",
        "090253.024000",
        "090253.028000",
        "090253.031000",
        "090253.035000",
        "090253.038000",
        "090253.041000",
        "090253.045000",
        "090253.048000",
        "090253.051000",
        "090253.054000",
        "090253.072000",
        "090253.093000",
        "090253.096000",
        "090253.100000",
        "090253.103000",
        "090253.106000",
        "090412.955000",
        "090412.958000",
        "090412.961000",
        "090412.965000",
        "090412.968000",
        "090412.972000",
        "090412.975000",
        "090412.979000",
        "090412.986000",
        "090412.990000",
        "090412.993000",
        "090412.997000",
        "090413.001000",
        "090413.004000",
        "090413.008000",
        "090413.011000",
        "090413.014000",
        "090413.018000",
        "090413.021000",
        "090413.024000",
        "090413.028000",
        "090413.031000",
        "090413.034000",
        "090413.038000",
        "090413.041000",
        "090532.954000",
        "090532.958000",
        "090532.961000",
        "090532.965000",
        "090532.968000",
        "090532.971000",
        "090532.975000",
        "090532.978000",
        "090532.982000",
        "090532.985000",
        "090533.010000",
        "090533.014000",
        "090533.017000",
        "090533.020000",
        "090533.024000",
        "090533.027000",
        "090533.031000",
        "090533.034000",
        "090533.038000",
        "090533.041000",
        "090533.044000",
        "090533.047000",
        "090533.051000",
        "090533.054000",
        "090533.057000",
        "090652.954000",
        "090652.958000",
        "090652.961000",
        "090652.965000",
        "090652.972000",
        "090652.976000",
        "090652.979000",
        "090652.982000",
        "090652.986000",
        "090652.989000",
        "090652.992000",
        "090652.996000",
        "090652.999000",
        "090653.003000",
        "090653.006000",
        "090653.009000",
        "090653.012000",
        "090653.016000",
        "090653.020000",
        "090653.023000",
        "090653.026000",
        "090653.030000",
        "090653.033000",
        "090653.036000",
        "090702.913000",
        "090702.917000",
        "090702.920000",
        "090702.924000"
      ],
      "InstanceCreationTime": [
        "090253.007000",
        "090253.011000",
        "090253.014000",
        "090253.018000",
        "090253.021000",
        "090253.024000",
        "090253.028000",
        "090253.031000",
        "090253.035000",
        "090253.038000",
        "090253.041000",
        "090253.045000",
        "090253.048000",
        "090253.051000",
        "090253.054000",
        "090253.072000",
        "090253.093000",
        "090253.096000",
        "090253.100000",
        "090253.103000",
        "090253.106000",
        "090412.955000",
        "090412.958000",
        "090412.961000",
        "090412.965000",
        "090412.968000",
        "090412.972000",
        "090412.975000",
        "090412.979000",
        "090412.986000",
        "090412.990000",
        "090412.993000",
        "090412.997000",
        "090413.001000",
        "090413.004000",
        "090413.008000",
        "090413.011000",
        "090413.014000",
        "090413.018000",
        "090413.021000",
        "090413.024000",
        "090413.028000",
        "090413.031000",
        "090413.034000",
        "090413.038000",
        "090413.041000",
        "090532.954000",
        "090532.958000",
        "090532.961000",
        "090532.965000",
        "090532.968000",
        "090532.971000",
        "090532.975000",
        "090532.978000",
        "090532.982000",
        "090532.985000",
        "090533.010000",
        "090533.014000",
        "090533.017000",
        "090533.020000",
        "090533.024000",
        "090533.027000",
        "090533.031000",
        "090533.034000",
        "090533.038000",
        "090533.041000",
        "090533.044000",
        "090533.047000",
        "090533.051000",
        "090533.054000",
        "090533.057000",
        "090652.954000",
        "090652.958000",
        "090652.961000",
        "090652.965000",
        "090652.972000",
        "090652.976000",
        "090652.979000",
        "090652.982000",
        "090652.986000",
        "090652.989000",
        "090652.992000",
        "090652.996000",
        "090652.999000",
        "090653.003000",
        "090653.006000",
        "090653.009000",
        "090653.012000",
        "090653.016000",
        "090653.020000",
        "090653.023000",
        "090653.026000",
        "090653.030000",
        "090653.033000",
        "090653.036000",
        "090702.913000",
        "090702.917000",
        "090702.920000",
        "090702.924000"
      ],
      "InstanceNumber": [
        1,
        2,
        3,
        4,
        5,
        6,
        7,
        8,
        9,
        10,
        11,
        12,
        13,
        14,
        15,
        16,
        17,
        18,
        19,
        20,
        21,
        22,
        23,
        24,
        25,
        26,
        27,
        28,
        29,
        30,
        31,
        32,
        33,
        34,
        35,
        36,
        37,
        38,
        39,
        40,
        41,
        42,
        43,
        44,
        45,
        46,
        47,
        48,
        49,
        50,
        51,
        52,
        53,
        54,
        55,
        56,
        57,
        58,
        59,
        60,
        61,
        62,
        63,
        64,
        65,
        66,
        67,
        68,
        69,
        70,
        71,
        72,
        73,
        74,
        75,
        76,
        77,
        78,
        79,
        80,
        81,
        82,
        83,
        84,
        85,
        86,
        87,
        88,
        89,
        90,
        91,
        92,
        93,
        94,
        95,
        96,
        97,
        98,
        99
      ],
      "LargestImagePixelValue": [
        19315,
        20479,
        4014,
        2617,
        3993,
        3218,
        3980,
        2638,
        3854,
        3165,
        4241,
        2277,
        4200,
        3328,
        4038,
        3299,
        4530,
        20918,
        3287,
        3933,
        3188,
        3985,
        2850,
        3781,
        2709,
        3959,
        2822,
        4331,
        3316,
        4006,
        3417,
        4526,
        2730,
        20677,
        4359,
        3341,
        3760,
        3169,
        3829,
        3326,
        4058,
        2304,
        4697,
        3436,
        3940,
        3223,
        4013,
        3442,
        4780,
        20130,
        3019,
        3863,
        3644,
        4325,
        3412,
        4661,
        3568,
        3994,
        3048,
        4081,
        3520,
        3933,
        2786,
        4127,
        3255,
        20983,
        4208,
        3071,
        3735,
        3183,
        4364,
        3186,
        3913,
        3221,
        4473,
        2989,
        4088,
        2482,
        3907,
        3151,
        4135,
        20240,
        3175,
        4494,
        2132,
        4358,
        3268,
        3717,
        2559,
        3971,
        3107,
        3905,
        2512,
        4128,
        3348,
        4414,
        2818,
        4017,
        2898
      ],
      "SequenceName": [
        "ep_b5#1",
        "ep_b5#1",
        "ep_b1490#2",
        "ep_b2990#3",
        "ep_b1495#4",
        "ep_b3005#5",
        "ep_b1505#6",
        "ep_b2985#7",
        "ep_b1500#8",
        "ep_b3005#9",
        "ep_b1490#10",
        "ep_b2995#11",
        "ep_b1495#12",
        "ep_b2990#13",
        "ep_b1500#14",
        "ep_b2985#15",
        "ep_b1505#16",
        "ep_b5#17",
        "ep_b3005#18",
        "ep_b1490#19",
        "ep_b3000#20",
        "ep_b1495#21",
        "ep_b3000#22",
        "ep_b1495#23",
        "ep_b3000#24",
        "ep_b1490#25",
        "ep_b2980#26",
        "ep_b1505#27",
        "ep_b2990#28",
        "ep_b1495#29",
        "ep_b3000#30",
        "ep_b1490#31",
        "ep_b3000#32",
        "ep_b5#33",
        "ep_b1505#34",
        "ep_b3000#35",
        "ep_b1490#36",
        "ep_b2980#37",
        "ep_b1495#38",
        "ep_b3000#39",
        "ep_b1500#40",
        "ep_b2995#41",
        "ep_b1505#42",
        "ep_b2990#43",
        "ep_b1495#44",
        "ep_b3000#45",
        "ep_b1495#46",
        "ep_b3000#47",
        "ep_b1490#48",
        "ep_b5#49",
        "ep_b3005#50",
        "ep_b1495#51",
        "ep_b2995#52",
        "ep_b1505#53",
        "ep_b2995#54",
        "ep_b1490#55",
        "ep_b2990#56",
        "ep_b1490#57",
        "ep_b3000#58",
        "ep_b1500#59",
        "ep_b3000#60",
        "ep_b1505#61",
        "ep_b2985#62",
        "ep_b1500#63",
        "ep_b2990#64",
        "ep_b5#65",
        "ep_b1505#66",
        "ep_b3005#67",
        "ep_b1495#68",
        "ep_b3005#69",
        "ep_b1505#70",
        "ep_b3005#71",
        "ep_b1500#72",
        "ep_b3005#73",
        "ep_b1490#74",
        "ep_b2990#75",
        "ep_b1495#76",
        "ep_b2995#77",
        "ep_b1500#78",
        "ep_b3000#79",
        "ep_b1490#80",
        "ep_b5#81",
        "ep_b2990#82",
        "ep_b1500#83",
        "ep_b2985#84",
        "ep_b1495#85",
        "ep_b2995#86",
        "ep_b1495#87",
        "ep_b2990#88",
        "ep_b1490#89",
        "ep_b2980#90",
        "ep_b1500#91",
        "ep_b2995#92",
        "ep_b1495#93",
        "ep_b3005#94",
        "ep_b1500#95",
        "ep_b2990#96",
        "ep_b1500#97",
        "ep_b3000#98"
      ],
      "TriggerTime": [
        18782.5,
        22012.5,
        25242.5,
        28472.5,
        31702.5,
        34932.5,
        38162.5,
        41392.5,
        44622.5,
        47852.5,
        51082.5,
        54312.5,
        57542.5,
        60772.5,
        64002.5,
        67232.5,
        70462.5,
        73692.5,
        76922.5,
        80152.5,
        83382.5,
        86612.5,
        89842.5,
        93072.5,
        96302.5,
        99532.5,
        102762.5,
        105992.5,
        109222.5,
        112452.5,
        115682.5,
        118912.5,
        122142.5,
        125372.5,
        128602.5,
        131832.5,
        135062.5,
        138292.5,
        141522.5,
        144752.5,
        147982.5,
        151212.5,
        154442.5,
        157672.5,
        160902.5,
        164132.5,
        167362.5,
        170592.5,
        173822.5,
        177052.5,
        180282.5,
        183512.5,
        186742.5,
        189972.5,
        193202.5,
        196432.5,
        199662.5,
        202892.5,
        206122.5,
        209352.5,
        212582.5,
        215812.5,
        219042.5,
        222272.5,
        225502.5,
        228732.5,
        231962.5,
        235192.5,
        238422.5,
        241652.5,
        244882.5,
        248112.5,
        251342.5,
        254572.5,
        257802.5,
        261032.5,
        264262.5,
        267492.5,
        270722.5,
        273952.5,
        277182.5,
        280412.5,
        283642.5,
        286872.5,
        290102.5,
        293332.5,
        296562.5,
        299792.5,
        303022.5,
        306252.5,
        309482.5,
        312712.5,
        315942.5,
        319172.5,
        322402.5,
        325632.5,
        328862.5,
        332092.5,
        335322.5
      ],
      "WindowCenter": [
        3607,
        3642,
        1290,
        765,
        1282,
        822,
        1260,
        784,
        1279,
        806,
        1293,
        758,
        1291,
        824,
        1262,
        827,
        1276,
        3664,
        823,
        1279,
        802,
        1262,
        812,
        1279,
        783,
        1262,
        796,
        1290,
        826,
        1273,
        821,
        1307,
        796,
        3649,
        1304,
        804,
        1264,
        822,
        1259,
        806,
        1277,
        755,
        1285,
        834,
        1280,
        801,
        1278,
        839,
        1308,
        3652,
        812,
        1262,
        818,
        1291,
        840,
        1286,
        834,
        1279,
        804,
        1294,
        820,
        1263,
        797,
        1273,
        810,
        3663,
        1291,
        824,
        1278,
        801,
        1292,
        825,
        1264,
        807,
        1291,
        797,
        1292,
        783,
        1275,
        806,
        1259,
        3640,
        820,
        1291,
        753,
        1290,
        824,
        1263,
        767,
        1263,
        824,
        1281,
        779,
        1290,
        825,
        1271,
        813,
        1258,
        795
      ],
      "WindowWidth": [
        8506,
        8604,
        3371,
        2090,
        3366,
        2229,
        3310,
        2142,
        3353,
        2191,
        3381,
        2080,
        3377,
        2238,
        3318,
        2248,
        3342,
        8641,
        2234,
        3355,
        2177,
        3314,
        2211,
        3352,
        2140,
        3313,
        2169,
        3372,
        2244,
        3334,
        2229,
        3414,
        2171,
        8608,
        3401,
        2185,
        3321,
        2231,
        3305,
        2191,
        3349,
        2070,
        3357,
        2258,
        3356,
        2176,
        3350,
        2276,
        3414,
        8618,
        2209,
        3315,
        2218,
        3377,
        2277,
        3361,
        2257,
        3353,
        2184,
        3385,
        2225,
        3321,
        2171,
        3338,
        2206,
        8632,
        3377,
        2238,
        3349,
        2176,
        3378,
        2241,
        3324,
        2195,
        3376,
        2174,
        3377,
        2141,
        3341,
        2192,
        3306,
        8598,
        2225,
        3374,
        2062,
        3371,
        2238,
        3315,
        2100,
        3316,
        2235,
        3358,
        2128,
        3376,
        2240,
        3327,
        2212,
        3301,
        2167
      ]
    },
    "slices": {}
  }
}
