{
  "AcquisitionMatrixPE": 140,
  "AcquisitionNumber": 1,
  "AcquisitionTime": "16:48:33.325000",
  "BandwidthPerPixelPhaseEncode": 10.352,
  "BaseResolution": 140,
  "BodyPartExamined": "BRAIN",
  "CoilCombinationMethod": "Sum of Squares",
  "ConsistencyInfo": "N4_VE11C_LATEST_20160120",
  "ConversionSoftware": "dcm2niix",
  "ConversionSoftwareVersion": "v1.0.20220720",
  "DerivedVendorReportedEchoSpacing": 0.000689998,
  "DeviceSerialNumber": "67026",
  "DiffusionScheme": "Monopolar",
  "DwellTime": 2.1e-06,
  "EchoTime": 0.0892,
  "EchoTrainLength": 105,
  "EffectiveEchoSpacing": 0.000689998,
  "FlipAngle": 78,
  "HeudiconvVersion": "0.11.4",
  "ImageComments": "Unaliased MB4/PE3/LB SENSE1",
  "ImageOrientationPatientDICOM": [
    0.993609,
    -0.0897113,
    0.0685119,
    0.101628,
    0.975114,
    -0.197041
  ],
  "ImageOrientationText": "Tra>Cor(-11.7)>Sag(2.8)",
  "ImageType": [
    "ORIGINAL",
    "PRIMARY",
    "DIFFUSION",
    "NONE",
    "MB",
    "ND",
    "MOSAIC"
  ],
  "ImagingFrequency": 123.189,
  "InPlanePhaseEncodingDirectionDICOM": "COL",
  "InstitutionAddress": "13th St. 149,Charlestown,MA,US,02129",
  "InstitutionName": "Martinos Center Bay 4 Prisma",
  "InstitutionalDepartmentName": "Martinos Center",
  "MRAcquisitionType": "2D",
  "MagneticFieldStrength": 3,
  "Manufacturer": "Siemens",
  "ManufacturersModelName": "Prisma_fit",
  "MatrixCoilMode": "SENSE",
  "Modality": "MR",
  "MultibandAccelerationFactor": 4,
  "NonlinearGradientCorrection": false,
  "PartialFourier": 0.75,
  "PatientPosition": "HFS",
  "PercentPhaseFOV": 100,
  "PercentSampling": 100,
  "PhaseEncodingDirection": "j-",
  "PhaseEncodingSteps": 105,
  "PhaseResolution": 1,
  "PixelBandwidth": 1700,
  "ProcedureStepDescription": "INVESTIGATORS^Greve",
  "ProtocolName": "dMRI_dir98_AP",
  "PulseSequenceDetails": "%CustomerSeq%\\hcp_mbep2d_diff",
  "ReceiveCoilActiveElements": "HEA;HEP",
  "ReceiveCoilName": "Head_32",
  "ReconMatrixPE": 140,
  "RepetitionTime": 3.23,
  "SAR": 0.162429,
  "ScanOptions": "PFP\\EXT",
  "ScanningSequence": "EP",
  "SequenceName": "ep_b5#1",
  "SequenceVariant": "SK\\SS",
  "SeriesDescription": "dMRI_dir98_AP",
  "SeriesNumber": 42,
  "ShimSetting": [
    -1188,
    -10552,
    -10158,
    644,
    329,
    96,
    -20,
    -68
  ],
  "SliceThickness": 1.5,
  "SliceTiming": [
    0,
    1.6725,
    0.1375,
    1.8125,
    0.2775,
    1.9525,
    0.4175,
    2.0925,
    0.5575,
    2.2325,
    0.6975,
    2.3725,
    0.8375,
    2.51,
    0.975,
    2.65,
    1.115,
    2.79,
    1.255,
    2.93,
    1.395,
    3.07,
    1.535,
    0,
    1.6725,
    0.1375,
    1.8125,
    0.2775,
    1.9525,
    0.4175,
    2.0925,
    0.5575,
    2.2325,
    0.6975,
    2.3725,
    0.8375,
    2.51,
    0.975,
    2.65,
    1.115,
    2.79,
    1.255,
    2.93,
    1.395,
    3.07,
    1.535,
    0,
    1.6725,
    0.1375,
    1.8125,
    0.2775,
    1.9525,
    0.4175,
    2.0925,
    0.5575,
    2.2325,
    0.6975,
    2.3725,
    0.8375,
    2.51,
    0.975,
    2.65,
    1.115,
    2.79,
    1.255,
    2.93,
    1.395,
    3.07,
    1.535,
    0,
    1.6725,
    0.1375,
    1.8125,
    0.2775,
    1.9525,
    0.4175,
    2.0925,
    0.5575,
    2.2325,
    0.6975,
    2.3725,
    0.8375,
    2.51,
    0.975,
    2.65,
    1.115,
    2.79,
    1.255,
    2.93,
    1.395,
    3.07,
    1.535
  ],
  "SoftwareVersions": "syngo MR E11",
  "SpacingBetweenSlices": 1.5,
  "StationName": "BAY4OC",
  "TotalReadoutTime": 0.0959097,
  "TxRefAmp": 220.836,
  "WipMemBlock": "20d7f097-0e73-431d-941e-193f89df3046||Sequence: ve11c/master r/5b0256d+; Dec  9 2016 09:48:43 by eja",
  "dcmmeta_affine": [
    [
      -1.4904128313064575,
      0.15244191884994507,
      0.07369505614042282,
      105.46304321289062
    ],
    [
      0.13456697762012482,
      1.4626703262329102,
      -0.30411699414253235,
      -86.66279602050781
    ],
    [
      0.10276783257722855,
      0.2955619692802429,
      1.4669976234436035,
      -82.87870788574219
    ],
    [
      0,
      0,
      0,
      1
    ]
  ],
  "dcmmeta_reorient_transform": [
    [
      0,
      -1,
      0,
      139
    ],
    [
      1,
      0,
      0,
      0
    ],
    [
      0,
      0,
      1,
      0
    ],
    [
      0,
      0,
      0,
      1
    ]
  ],
  "dcmmeta_shape": [
    140,
    140,
    92,
    99
  ],
  "dcmmeta_slice_dim": 2,
  "dcmmeta_version": 0.6,
  "time": {
    "samples": {
      "AcquisitionNumber": [
        1,
        2,
        3,
        4,
        5,
        6,
        7,
        8,
        9,
        10,
        11,
        12,
        13,
        14,
        15,
        16,
        17,
        18,
        19,
        20,
        21,
        22,
        23,
        24,
        25,
        26,
        27,
        28,
        29,
        30,
        31,
        32,
        33,
        34,
        35,
        36,
        37,
        38,
        39,
        40,
        41,
        42,
        43,
        44,
        45,
        46,
        47,
        48,
        49,
        50,
        51,
        52,
        53,
        54,
        55,
        56,
        57,
        58,
        59,
        60,
        61,
        62,
        63,
        64,
        65,
        66,
        67,
        68,
        69,
        70,
        71,
        72,
        73,
        74,
        75,
        76,
        77,
        78,
        79,
        80,
        81,
        82,
        83,
        84,
        85,
        86,
        87,
        88,
        89,
        90,
        91,
        92,
        93,
        94,
        95,
        96,
        97,
        98,
        99
      ],
      "AcquisitionTime": [
        "164833.325000",
        "164836.555000",
        "164839.785000",
        "164843.015000",
        "164846.245000",
        "164849.475000",
        "164852.705000",
        "164855.935000",
        "164859.165000",
        "164902.395000",
        "164905.625000",
        "164908.855000",
        "164912.085000",
        "164915.315000",
        "164918.545000",
        "164921.775000",
        "164925.005000",
        "164928.235000",
        "164931.465000",
        "164934.695000",
        "164937.925000",
        "164941.155000",
        "164944.385000",
        "164947.615000",
        "164950.845000",
        "164954.075000",
        "164957.305000",
        "165000.535000",
        "165003.765000",
        "165006.995000",
        "165010.225000",
        "165013.455000",
        "165016.685000",
        "165019.915000",
        "165023.145000",
        "165026.375000",
        "165029.605000",
        "165032.835000",
        "165036.065000",
        "165039.295000",
        "165042.525000",
        "165045.755000",
        "165048.985000",
        "165052.215000",
        "165055.445000",
        "165058.675000",
        "165101.905000",
        "165105.135000",
        "165108.365000",
        "165111.595000",
        "165114.825000",
        "165118.055000",
        "165121.285000",
        "165124.515000",
        "165127.745000",
        "165130.975000",
        "165134.205000",
        "165137.435000",
        "165140.665000",
        "165143.895000",
        "165147.125000",
        "165150.355000",
        "165153.585000",
        "165156.815000",
        "165200.045000",
        "165203.275000",
        "165206.505000",
        "165209.735000",
        "165212.965000",
        "165216.195000",
        "165219.425000",
        "165222.655000",
        "165225.885000",
        "165229.115000",
        "165232.345000",
        "165235.575000",
        "165238.805000",
        "165242.035000",
        "165245.265000",
        "165248.495000",
        "165251.725000",
        "165254.955000",
        "165258.185000",
        "165301.415000",
        "165304.645000",
        "165307.875000",
        "165311.105000",
        "165314.335000",
        "165317.565000",
        "165320.795000",
        "165324.025000",
        "165327.255000",
        "165330.485000",
        "165333.715000",
        "165336.945000",
        "165340.175000",
        "165343.405000",
        "165346.635000",
        "165349.865000"
      ],
      "ContentTime": [
        "165032.120000",
        "165032.125000",
        "165032.128000",
        "165032.131000",
        "165032.135000",
        "165032.138000",
        "165032.147000",
        "165032.152000",
        "165052.073000",
        "165052.077000",
        "165052.080000",
        "165052.096000",
        "165052.099000",
        "165052.102000",
        "165052.106000",
        "165052.109000",
        "165052.112000",
        "165052.116000",
        "165052.119000",
        "165052.122000",
        "165052.126000",
        "165052.129000",
        "165052.132000",
        "165052.135000",
        "165052.139000",
        "165052.142000",
        "165052.145000",
        "165052.148000",
        "165052.152000",
        "165052.155000",
        "165132.073000",
        "165132.077000",
        "165132.080000",
        "165132.083000",
        "165132.087000",
        "165132.090000",
        "165132.093000",
        "165132.104000",
        "165132.107000",
        "165132.111000",
        "165132.114000",
        "165132.117000",
        "165132.121000",
        "165132.124000",
        "165132.127000",
        "165132.131000",
        "165132.134000",
        "165132.137000",
        "165132.140000",
        "165132.144000",
        "165132.147000",
        "165132.150000",
        "165132.154000",
        "165132.157000",
        "165132.160000",
        "165252.073000",
        "165252.077000",
        "165252.080000",
        "165252.084000",
        "165252.087000",
        "165252.090000",
        "165252.093000",
        "165252.097000",
        "165252.100000",
        "165252.104000",
        "165252.107000",
        "165252.110000",
        "165252.113000",
        "165252.117000",
        "165252.120000",
        "165252.123000",
        "165252.127000",
        "165252.130000",
        "165252.134000",
        "165252.137000",
        "165252.140000",
        "165252.144000",
        "165252.147000",
        "165252.150000",
        "165353.838000",
        "165353.842000",
        "165353.845000",
        "165353.848000",
        "165353.851000",
        "165353.855000",
        "165353.858000",
        "165353.861000",
        "165353.865000",
        "165353.868000",
        "165353.871000",
        "165353.874000",
        "165353.878000",
        "165353.881000",
        "165353.884000",
        "165353.888000",
        "165353.891000",
        "165353.894000",
        "165353.897000",
        "165353.901000"
      ],
      "InstanceCreationTime": [
        "165032.120000",
        "165032.125000",
        "165032.128000",
        "165032.131000",
        "165032.135000",
        "165032.138000",
        "165032.147000",
        "165032.152000",
        "165052.073000",
        "165052.077000",
        "165052.080000",
        "165052.096000",
        "165052.099000",
        "165052.102000",
        "165052.106000",
        "165052.109000",
        "165052.112000",
        "165052.116000",
        "165052.119000",
        "165052.122000",
        "165052.126000",
        "165052.129000",
        "165052.132000",
        "165052.135000",
        "165052.139000",
        "165052.142000",
        "165052.145000",
        "165052.148000",
        "165052.152000",
        "165052.155000",
        "165132.073000",
        "165132.077000",
        "165132.080000",
        "165132.083000",
        "165132.087000",
        "165132.090000",
        "165132.093000",
        "165132.104000",
        "165132.107000",
        "165132.111000",
        "165132.114000",
        "165132.117000",
        "165132.121000",
        "165132.124000",
        "165132.127000",
        "165132.131000",
        "165132.134000",
        "165132.137000",
        "165132.140000",
        "165132.144000",
        "165132.147000",
        "165132.150000",
        "165132.154000",
        "165132.157000",
        "165132.160000",
        "165252.073000",
        "165252.077000",
        "165252.080000",
        "165252.084000",
        "165252.087000",
        "165252.090000",
        "165252.093000",
        "165252.097000",
        "165252.100000",
        "165252.104000",
        "165252.107000",
        "165252.110000",
        "165252.113000",
        "165252.117000",
        "165252.120000",
        "165252.123000",
        "165252.127000",
        "165252.130000",
        "165252.134000",
        "165252.137000",
        "165252.140000",
        "165252.144000",
        "165252.147000",
        "165252.150000",
        "165353.838000",
        "165353.842000",
        "165353.845000",
        "165353.848000",
        "165353.851000",
        "165353.855000",
        "165353.858000",
        "165353.861000",
        "165353.865000",
        "165353.868000",
        "165353.871000",
        "165353.874000",
        "165353.878000",
        "165353.881000",
        "165353.884000",
        "165353.888000",
        "165353.891000",
        "165353.894000",
        "165353.897000",
        "165353.901000"
      ],
      "InstanceNumber": [
        1,
        2,
        3,
        4,
        5,
        6,
        7,
        8,
        9,
        10,
        11,
        12,
        13,
        14,
        15,
        16,
        17,
        18,
        19,
        20,
        21,
        22,
        23,
        24,
        25,
        26,
        27,
        28,
        29,
        30,
        31,
        32,
        33,
        34,
        35,
        36,
        37,
        38,
        39,
        40,
        41,
        42,
        43,
        44,
        45,
        46,
        47,
        48,
        49,
        50,
        51,
        52,
        53,
        54,
        55,
        56,
        57,
        58,
        59,
        60,
        61,
        62,
        63,
        64,
        65,
        66,
        67,
        68,
        69,
        70,
        71,
        72,
        73,
        74,
        75,
        76,
        77,
        78,
        79,
        80,
        81,
        82,
        83,
        84,
        85,
        86,
        87,
        88,
        89,
        90,
        91,
        92,
        93,
        94,
        95,
        96,
        97,
        98,
        99
      ],
      "LargestImagePixelValue": [
        22697,
        26924,
        5303,
        2076,
        4519,
        2691,
        5245,
        2246,
        4757,
        2141,
        4886,
        2382,
        5237,
        2476,
        4979,
        2540,
        4789,
        24536,
        2396,
        5790,
        2075,
        4920,
        2215,
        4664,
        2397,
        4610,
        2206,
        4888,
        2516,
        5213,
        2142,
        4906,
        2285,
        25642,
        5221,
        2153,
        4594,
        2251,
        4681,
        2157,
        4983,
        2185,
        4926,
        2332,
        5006,
        2282,
        4814,
        2556,
        5184,
        22959,
        2755,
        5359,
        2331,
        5020,
        2317,
        4616,
        2353,
        5065,
        2243,
        4684,
        2253,
        4828,
        2196,
        5006,
        2077,
        25242,
        4923,
        2649,
        4870,
        2098,
        4816,
        2400,
        4736,
        2248,
        4984,
        2431,
        5371,
        2493,
        4942,
        2086,
        4553,
        28357,
        3307,
        4666,
        2043,
        4749,
        2415,
        4717,
        2111,
        4511,
        2509,
        4378,
        2248,
        4999,
        2375,
        4572,
        2569,
        4986,
        2215
      ],
      "SequenceName": [
        "ep_b5#1",
        "ep_b5#1",
        "ep_b1490#2",
        "ep_b2990#3",
        "ep_b1495#4",
        "ep_b3005#5",
        "ep_b1500#6",
        "ep_b2990#7",
        "ep_b1495#8",
        "ep_b3005#9",
        "ep_b1490#10",
        "ep_b2995#11",
        "ep_b1490#12",
        "ep_b2990#13",
        "ep_b1500#14",
        "ep_b2985#15",
        "ep_b1500#16",
        "ep_b5#17",
        "ep_b3005#18",
        "ep_b1490#19",
        "ep_b2995#20",
        "ep_b1500#21",
        "ep_b3000#22",
        "ep_b1495#23",
        "ep_b3005#24",
        "ep_b1490#25",
        "ep_b2980#26",
        "ep_b1505#27",
        "ep_b2990#28",
        "ep_b1500#29",
        "ep_b3000#30",
        "ep_b1490#31",
        "ep_b3005#32",
        "ep_b5#33",
        "ep_b1505#34",
        "ep_b3000#35",
        "ep_b1490#36",
        "ep_b2980#37",
        "ep_b1495#38",
        "ep_b2995#39",
        "ep_b1505#40",
        "ep_b2995#41",
        "ep_b1505#42",
        "ep_b2985#43",
        "ep_b1495#44",
        "ep_b3000#45",
        "ep_b1495#46",
        "ep_b3000#47",
        "ep_b1485#48",
        "ep_b5#49",
        "ep_b3005#50",
        "ep_b1500#51",
        "ep_b2990#52",
        "ep_b1505#53",
        "ep_b2995#54",
        "ep_b1495#55",
        "ep_b2985#56",
        "ep_b1490#57",
        "ep_b2995#58",
        "ep_b1500#59",
        "ep_b3000#60",
        "ep_b1500#61",
        "ep_b2985#62",
        "ep_b1500#63",
        "ep_b2990#64",
        "ep_b5#65",
        "ep_b1505#66",
        "ep_b3005#67",
        "ep_b1495#68",
        "ep_b3000#69",
        "ep_b1505#70",
        "ep_b3010#71",
        "ep_b1500#72",
        "ep_b3005#73",
        "ep_b1490#74",
        "ep_b2995#75",
        "ep_b1495#76",
        "ep_b3000#77",
        "ep_b1505#78",
        "ep_b3000#79",
        "ep_b1490#80",
        "ep_b5#81",
        "ep_b2985#82",
        "ep_b1500#83",
        "ep_b2985#84",
        "ep_b1490#85",
        "ep_b2995#86",
        "ep_b1495#87",
        "ep_b2995#88",
        "ep_b1490#89",
        "ep_b2980#90",
        "ep_b1500#91",
        "ep_b3000#92",
        "ep_b1490#93",
        "ep_b3005#94",
        "ep_b1495#95",
        "ep_b2990#96",
        "ep_b1500#97",
        "ep_b3000#98"
      ],
      "TriggerTime": [
        18780,
        22010,
        25240,
        28470,
        31700,
        34930,
        38160,
        41390,
        44620,
        47850,
        51080,
        54310,
        57540,
        60770,
        64000,
        67230,
        70460,
        73690,
        76920,
        80150,
        83380,
        86610,
        89840,
        93070,
        96300,
        99530,
        102760,
        105990,
        109220,
        112450,
        115680,
        118910,
        122140,
        125370,
        128600,
        131830,
        135060,
        138290,
        141520,
        144750,
        147980,
        151210,
        154440,
        157670,
        160900,
        164130,
        167360,
        170590,
        173820,
        177050,
        180280,
        183510,
        186740,
        189970,
        193200,
        196430,
        199660,
        202890,
        206120,
        209350,
        212580,
        215810,
        219040,
        222270,
        225500,
        228730,
        231960,
        235190,
        238420,
        241650,
        244880,
        248110,
        251340,
        254570,
        257800,
        261030,
        264260,
        267490,
        270720,
        273950,
        277180,
        280410,
        283640,
        286870,
        290100,
        293330,
        296560,
        299790,
        303020,
        306250,
        309480,
        312710,
        315940,
        319170,
        322400,
        325630,
        328860,
        332090,
        335320
      ],
      "WindowCenter": [
        3820,
        3871,
        1501,
        807,
        1519,
        867,
        1532,
        825,
        1506,
        821,
        1501,
        862,
        1550,
        874,
        1516,
        868,
        1503,
        3844,
        840,
        1545,
        808,
        1534,
        843,
        1500,
        851,
        1489,
        824,
        1518,
        867,
        1534,
        824,
        1516,
        844,
        3843,
        1516,
        828,
        1488,
        822,
        1532,
        864,
        1534,
        828,
        1502,
        846,
        1517,
        825,
        1503,
        853,
        1516,
        3845,
        875,
        1560,
        848,
        1500,
        840,
        1504,
        861,
        1532,
        825,
        1502,
        826,
        1501,
        822,
        1560,
        809,
        3854,
        1489,
        868,
        1517,
        844,
        1516,
        854,
        1517,
        820,
        1501,
        870,
        1515,
        890,
        1521,
        824,
        1504,
        3863,
        888,
        1502,
        788,
        1520,
        852,
        1487,
        847,
        1473,
        847,
        1491,
        849,
        1547,
        825,
        1504,
        854,
        1499,
        844
      ],
      "WindowWidth": [
        8745,
        8853,
        3858,
        2234,
        3903,
        2367,
        3930,
        2267,
        3876,
        2253,
        3861,
        2366,
        3969,
        2393,
        3895,
        2369,
        3869,
        8798,
        2304,
        3953,
        2235,
        3935,
        2315,
        3856,
        2342,
        3839,
        2263,
        3897,
        2368,
        3935,
        2261,
        3892,
        2316,
        8790,
        3894,
        2279,
        3834,
        2255,
        3928,
        2374,
        3934,
        2277,
        3864,
        2325,
        3897,
        2267,
        3867,
        2334,
        3890,
        8793,
        2380,
        3985,
        2334,
        3858,
        2305,
        3872,
        2361,
        3931,
        2266,
        3862,
        2271,
        3862,
        2255,
        3985,
        2238,
        8808,
        3838,
        2370,
        3898,
        2318,
        3892,
        2336,
        3897,
        2250,
        3858,
        2376,
        3887,
        2432,
        3912,
        2264,
        3872,
        8812,
        2408,
        3865,
        2179,
        3904,
        2330,
        3831,
        2328,
        3803,
        2312,
        3844,
        2335,
        3959,
        2268,
        3872,
        2340,
        3855,
        2318
      ]
    },
    "slices": {}
  }
}
