{
  "AcquisitionMatrixPE": 104,
  "AcquisitionNumber": 1,
  "AcquisitionTime": "08:41:16.052500",
  "BandwidthPerPixelPhaseEncode": 16.578,
  "BaseResolution": 104,
  "BodyPartExamined": "BRAIN",
  "CoilCombinationMethod": "Sum of Squares",
  "ConsistencyInfo": "N4_VE11C_LATEST_20160120",
  "ConversionSoftware": "dcm2niix",
  "ConversionSoftwareVersion": "v1.0.20220720",
  "DerivedVendorReportedEchoSpacing": 0.000580009,
  "DeviceSerialNumber": "67026",
  "DwellTime": 2.1e-06,
  "EchoTime": 0.037,
  "EchoTrainLength": 104,
  "EffectiveEchoSpacing": 0.000580009,
  "FlipAngle": 52,
  "HeudiconvVersion": "0.11.4",
  "ImageComments": "Unaliased MB8/PE3/LB",
  "ImageOrientationPatientDICOM": [
    0.999959,
    0.0071368,
    0.00553427,
    -0.00645754,
    0.993425,
    -0.114304
  ],
  "ImageOrientationText": "Tra>Cor(-6.6)>Sag(0.4)",
  "ImageType": [
    "ORIGINAL",
    "PRIMARY",
    "M",
    "MB",
    "ND",
    "MOSAIC"
  ],
  "ImagingFrequency": 123.23,
  "InPlanePhaseEncodingDirectionDICOM": "COL",
  "InstitutionAddress": "13th St. 149,Charlestown,MA,US,02129",
  "InstitutionName": "Martinos Center Bay 4 Prisma",
  "InstitutionalDepartmentName": "Martinos Center",
  "MRAcquisitionType": "2D",
  "MagneticFieldStrength": 3,
  "Manufacturer": "Siemens",
  "ManufacturersModelName": "Prisma_fit",
  "MatrixCoilMode": "SENSE",
  "Modality": "MR",
  "MultibandAccelerationFactor": 8,
  "NonlinearGradientCorrection": false,
  "PartialFourier": 1,
  "PatientPosition": "HFS",
  "PercentPhaseFOV": 100,
  "PercentSampling": 100,
  "PhaseEncodingDirection": "j-",
  "PhaseEncodingSteps": 104,
  "PhaseResolution": 1,
  "PixelBandwidth": 2290,
  "ProcedureStepDescription": "INVESTIGATORS^Greve",
  "ProtocolName": "rfMRI_REST_AP",
  "PulseSequenceDetails": "%CustomerSeq%\\hcp_mbep2d_bold",
  "ReceiveCoilActiveElements": "HEA;HEP",
  "ReceiveCoilName": "Head_32",
  "ReconMatrixPE": 104,
  "RepetitionTime": 0.8,
  "SAR": 0.074588,
  "ScanOptions": "FS\\EXT",
  "ScanningSequence": "EP",
  "SequenceName": "epfid2d1_104",
  "SequenceVariant": "SK\\SS",
  "SeriesDescription": "rfMRI_REST_AP",
  "SeriesNumber": 19,
  "ShimSetting": [
    -1258,
    -10412,
    -10178,
    486,
    92,
    34,
    11,
    -17
  ],
  "SliceThickness": 2,
  "SliceTiming": [
    0,
    0.4325,
    0.085,
    0.52,
    0.1725,
    0.605,
    0.26,
    0.6925,
    0.345,
    0,
    0.4325,
    0.085,
    0.52,
    0.1725,
    0.605,
    0.26,
    0.6925,
    0.345,
    0,
    0.4325,
    0.085,
    0.52,
    0.1725,
    0.605,
    0.26,
    0.6925,
    0.345,
    0,
    0.4325,
    0.085,
    0.52,
    0.1725,
    0.605,
    0.26,
    0.6925,
    0.345,
    0,
    0.4325,
    0.085,
    0.52,
    0.1725,
    0.605,
    0.26,
    0.6925,
    0.345,
    0,
    0.4325,
    0.085,
    0.52,
    0.1725,
    0.605,
    0.26,
    0.6925,
    0.345,
    0,
    0.4325,
    0.085,
    0.52,
    0.1725,
    0.605,
    0.26,
    0.6925,
    0.345,
    0,
    0.4325,
    0.085,
    0.52,
    0.1725,
    0.605,
    0.26,
    0.6925,
    0.345
  ],
  "SoftwareVersions": "syngo MR E11",
  "SpacingBetweenSlices": 2,
  "StationName": "BAY4OC",
  "TaskName": "rest",
  "TotalReadoutTime": 0.0597409,
  "TxRefAmp": 253.459,
  "WipMemBlock": "d9312680-cdcd-4281-8d7b-9700ee7db42d||Sequence: ve11c/master r/5b0256d+; Dec  9 2016 09:38:51 by eja",
  "dcmmeta_affine": [
    [
      -1.9999184608459473,
      -0.012915089726448059,
      0.01262729987502098,
      107.85862731933594
    ],
    [
      -0.014273595064878464,
      1.9868496656417847,
      -0.2285275012254715,
      -96.50682830810547
    ],
    [
      0.011068546213209629,
      0.22860829532146454,
      1.986860752105713,
      -54.40166473388672
    ],
    [
      0,
      0,
      0,
      1
    ]
  ],
  "dcmmeta_reorient_transform": [
    [
      0,
      -1,
      0,
      103
    ],
    [
      1,
      0,
      0,
      0
    ],
    [
      0,
      0,
      1,
      0
    ],
    [
      0,
      0,
      0,
      1
    ]
  ],
  "dcmmeta_shape": [
    104,
    104,
    72,
    600
  ],
  "dcmmeta_slice_dim": 2,
  "dcmmeta_version": 0.6,
  "time": {
    "samples": {
      "AcquisitionNumber": [
        1,
        2,
        3,
        4,
        5,
        6,
        7,
        8,
        9,
        10,
        11,
        12,
        13,
        14,
        15,
        16,
        17,
        18,
        19,
        20,
        21,
        22,
        23,
        24,
        25,
        26,
        27,
        28,
        29,
        30,
        31,
        32,
        33,
        34,
        35,
        36,
        37,
        38,
        39,
        40,
        41,
        42,
        43,
        44,
        45,
        46,
        47,
        48,
        49,
        50,
        51,
        52,
        53,
        54,
        55,
        56,
        57,
        58,
        59,
        60,
        61,
        62,
        63,
        64,
        65,
        66,
        67,
        68,
        69,
        70,
        71,
        72,
        73,
        74,
        75,
        76,
        77,
        78,
        79,
        80,
        81,
        82,
        83,
        84,
        85,
        86,
        87,
        88,
        89,
        90,
        91,
        92,
        93,
        94,
        95,
        96,
        97,
        98,
        99,
        100,
        101,
        102,
        103,
        104,
        105,
        106,
        107,
        108,
        109,
        110,
        111,
        112,
        113,
        114,
        115,
        116,
        117,
        118,
        119,
        120,
        121,
        122,
        123,
        124,
        125,
        126,
        127,
        128,
        129,
        130,
        131,
        132,
        133,
        134,
        135,
        136,
        137,
        138,
        139,
        140,
        141,
        142,
        143,
        144,
        145,
        146,
        147,
        148,
        149,
        150,
        151,
        152,
        153,
        154,
        155,
        156,
        157,
        158,
        159,
        160,
        161,
        162,
        163,
        164,
        165,
        166,
        167,
        168,
        169,
        170,
        171,
        172,
        173,
        174,
        175,
        176,
        177,
        178,
        179,
        180,
        181,
        182,
        183,
        184,
        185,
        186,
        187,
        188,
        189,
        190,
        191,
        192,
        193,
        194,
        195,
        196,
        197,
        198,
        199,
        200,
        201,
        202,
        203,
        204,
        205,
        206,
        207,
        208,
        209,
        210,
        211,
        212,
        213,
        214,
        215,
        216,
        217,
        218,
        219,
        220,
        221,
        222,
        223,
        224,
        225,
        226,
        227,
        228,
        229,
        230,
        231,
        232,
        233,
        234,
        235,
        236,
        237,
        238,
        239,
        240,
        241,
        242,
        243,
        244,
        245,
        246,
        247,
        248,
        249,
        250,
        251,
        252,
        253,
        254,
        255,
        256,
        257,
        258,
        259,
        260,
        261,
        262,
        263,
        264,
        265,
        266,
        267,
        268,
        269,
        270,
        271,
        272,
        273,
        274,
        275,
        276,
        277,
        278,
        279,
        280,
        281,
        282,
        283,
        284,
        285,
        286,
        287,
        288,
        289,
        290,
        291,
        292,
        293,
        294,
        295,
        296,
        297,
        298,
        299,
        300,
        301,
        302,
        303,
        304,
        305,
        306,
        307,
        308,
        309,
        310,
        311,
        312,
        313,
        314,
        315,
        316,
        317,
        318,
        319,
        320,
        321,
        322,
        323,
        324,
        325,
        326,
        327,
        328,
        329,
        330,
        331,
        332,
        333,
        334,
        335,
        336,
        337,
        338,
        339,
        340,
        341,
        342,
        343,
        344,
        345,
        346,
        347,
        348,
        349,
        350,
        351,
        352,
        353,
        354,
        355,
        356,
        357,
        358,
        359,
        360,
        361,
        362,
        363,
        364,
        365,
        366,
        367,
        368,
        369,
        370,
        371,
        372,
        373,
        374,
        375,
        376,
        377,
        378,
        379,
        380,
        381,
        382,
        383,
        384,
        385,
        386,
        387,
        388,
        389,
        390,
        391,
        392,
        393,
        394,
        395,
        396,
        397,
        398,
        399,
        400,
        401,
        402,
        403,
        404,
        405,
        406,
        407,
        408,
        409,
        410,
        411,
        412,
        413,
        414,
        415,
        416,
        417,
        418,
        419,
        420,
        421,
        422,
        423,
        424,
        425,
        426,
        427,
        428,
        429,
        430,
        431,
        432,
        433,
        434,
        435,
        436,
        437,
        438,
        439,
        440,
        441,
        442,
        443,
        444,
        445,
        446,
        447,
        448,
        449,
        450,
        451,
        452,
        453,
        454,
        455,
        456,
        457,
        458,
        459,
        460,
        461,
        462,
        463,
        464,
        465,
        466,
        467,
        468,
        469,
        470,
        471,
        472,
        473,
        474,
        475,
        476,
        477,
        478,
        479,
        480,
        481,
        482,
        483,
        484,
        485,
        486,
        487,
        488,
        489,
        490,
        491,
        492,
        493,
        494,
        495,
        496,
        497,
        498,
        499,
        500,
        501,
        502,
        503,
        504,
        505,
        506,
        507,
        508,
        509,
        510,
        511,
        512,
        513,
        514,
        515,
        516,
        517,
        518,
        519,
        520,
        521,
        522,
        523,
        524,
        525,
        526,
        527,
        528,
        529,
        530,
        531,
        532,
        533,
        534,
        535,
        536,
        537,
        538,
        539,
        540,
        541,
        542,
        543,
        544,
        545,
        546,
        547,
        548,
        549,
        550,
        551,
        552,
        553,
        554,
        555,
        556,
        557,
        558,
        559,
        560,
        561,
        562,
        563,
        564,
        565,
        566,
        567,
        568,
        569,
        570,
        571,
        572,
        573,
        574,
        575,
        576,
        577,
        578,
        579,
        580,
        581,
        582,
        583,
        584,
        585,
        586,
        587,
        588,
        589,
        590,
        591,
        592,
        593,
        594,
        595,
        596,
        597,
        598,
        599,
        600
      ],
      "AcquisitionTime": [
        "084116.052500",
        "084116.852500",
        "084117.652500",
        "084118.452500",
        "084119.252500",
        "084120.052500",
        "084120.852500",
        "084121.652500",
        "084122.452500",
        "084123.252500",
        "084124.052500",
        "084124.852500",
        "084125.652500",
        "084126.452500",
        "084127.252500",
        "084128.052500",
        "084128.852500",
        "084129.652500",
        "084130.452500",
        "084131.252500",
        "084132.052500",
        "084132.852500",
        "084133.652500",
        "084134.452500",
        "084135.252500",
        "084136.052500",
        "084136.852500",
        "084137.652500",
        "084138.452500",
        "084139.252500",
        "084140.052500",
        "084140.852500",
        "084141.652500",
        "084142.452500",
        "084143.252500",
        "084144.052500",
        "084144.852500",
        "084145.652500",
        "084146.452500",
        "084147.252500",
        "084148.052500",
        "084148.852500",
        "084149.652500",
        "084150.452500",
        "084151.252500",
        "084152.052500",
        "084152.852500",
        "084153.652500",
        "084154.452500",
        "084155.252500",
        "084156.052500",
        "084156.852500",
        "084157.652500",
        "084158.452500",
        "084159.252500",
        "084200.052500",
        "084200.852500",
        "084201.652500",
        "084202.452500",
        "084203.252500",
        "084204.052500",
        "084204.852500",
        "084205.652500",
        "084206.452500",
        "084207.252500",
        "084208.052500",
        "084208.852500",
        "084209.652500",
        "084210.452500",
        "084211.252500",
        "084212.052500",
        "084212.852500",
        "084213.652500",
        "084214.452500",
        "084215.252500",
        "084216.052500",
        "084216.852500",
        "084217.652500",
        "084218.452500",
        "084219.252500",
        "084220.052500",
        "084220.852500",
        "084221.652500",
        "084222.452500",
        "084223.252500",
        "084224.052500",
        "084224.852500",
        "084225.652500",
        "084226.452500",
        "084227.252500",
        "084228.052500",
        "084228.852500",
        "084229.652500",
        "084230.452500",
        "084231.252500",
        "084232.052500",
        "084232.852500",
        "084233.652500",
        "084234.452500",
        "084235.252500",
        "084236.052500",
        "084236.852500",
        "084237.652500",
        "084238.452500",
        "084239.252500",
        "084240.052500",
        "084240.852500",
        "084241.652500",
        "084242.452500",
        "084243.252500",
        "084244.052500",
        "084244.852500",
        "084245.652500",
        "084246.452500",
        "084247.252500",
        "084248.052500",
        "084248.852500",
        "084249.652500",
        "084250.452500",
        "084251.252500",
        "084252.052500",
        "084252.852500",
        "084253.652500",
        "084254.452500",
        "084255.252500",
        "084256.052500",
        "084256.852500",
        "084257.652500",
        "084258.452500",
        "084259.252500",
        "084300.052500",
        "084300.852500",
        "084301.652500",
        "084302.452500",
        "084303.252500",
        "084304.052500",
        "084304.852500",
        "084305.652500",
        "084306.452500",
        "084307.252500",
        "084308.052500",
        "084308.852500",
        "084309.652500",
        "084310.452500",
        "084311.252500",
        "084312.052500",
        "084312.852500",
        "084313.652500",
        "084314.452500",
        "084315.252500",
        "084316.052500",
        "084316.852500",
        "084317.652500",
        "084318.452500",
        "084319.252500",
        "084320.052500",
        "084320.852500",
        "084321.652500",
        "084322.452500",
        "084323.252500",
        "084324.052500",
        "084324.852500",
        "084325.652500",
        "084326.452500",
        "084327.252500",
        "084328.052500",
        "084328.852500",
        "084329.652500",
        "084330.452500",
        "084331.252500",
        "084332.052500",
        "084332.852500",
        "084333.652500",
        "084334.452500",
        "084335.252500",
        "084336.052500",
        "084336.852500",
        "084337.652500",
        "084338.452500",
        "084339.252500",
        "084340.052500",
        "084340.852500",
        "084341.652500",
        "084342.452500",
        "084343.252500",
        "084344.052500",
        "084344.852500",
        "084345.652500",
        "084346.452500",
        "084347.252500",
        "084348.052500",
        "084348.852500",
        "084349.652500",
        "084350.452500",
        "084351.252500",
        "084352.052500",
        "084352.852500",
        "084353.652500",
        "084354.452500",
        "084355.252500",
        "084356.052500",
        "084356.852500",
        "084357.652500",
        "084358.452500",
        "084359.252500",
        "084400.052500",
        "084400.852500",
        "084401.652500",
        "084402.452500",
        "084403.252500",
        "084404.052500",
        "084404.852500",
        "084405.652500",
        "084406.452500",
        "084407.252500",
        "084408.052500",
        "084408.852500",
        "084409.652500",
        "084410.452500",
        "084411.252500",
        "084412.052500",
        "084412.852500",
        "084413.652500",
        "084414.452500",
        "084415.252500",
        "084416.052500",
        "084416.852500",
        "084417.652500",
        "084418.452500",
        "084419.252500",
        "084420.052500",
        "084420.852500",
        "084421.652500",
        "084422.452500",
        "084423.252500",
        "084424.052500",
        "084424.852500",
        "084425.652500",
        "084426.452500",
        "084427.252500",
        "084428.052500",
        "084428.852500",
        "084429.652500",
        "084430.452500",
        "084431.252500",
        "084432.052500",
        "084432.852500",
        "084433.652500",
        "084434.452500",
        "084435.252500",
        "084436.052500",
        "084436.852500",
        "084437.652500",
        "084438.452500",
        "084439.252500",
        "084440.052500",
        "084440.852500",
        "084441.652500",
        "084442.452500",
        "084443.252500",
        "084444.052500",
        "084444.852500",
        "084445.652500",
        "084446.452500",
        "084447.252500",
        "084448.052500",
        "084448.852500",
        "084449.652500",
        "084450.452500",
        "084451.252500",
        "084452.052500",
        "084452.852500",
        "084453.652500",
        "084454.452500",
        "084455.252500",
        "084456.052500",
        "084456.852500",
        "084457.652500",
        "084458.452500",
        "084459.252500",
        "084500.052500",
        "084500.852500",
        "084501.652500",
        "084502.452500",
        "084503.252500",
        "084504.052500",
        "084504.852500",
        "084505.652500",
        "084506.452500",
        "084507.252500",
        "084508.052500",
        "084508.852500",
        "084509.652500",
        "084510.452500",
        "084511.252500",
        "084512.052500",
        "084512.852500",
        "084513.652500",
        "084514.452500",
        "084515.252500",
        "084516.052500",
        "084516.852500",
        "084517.652500",
        "084518.452500",
        "084519.252500",
        "084520.052500",
        "084520.852500",
        "084521.652500",
        "084522.452500",
        "084523.252500",
        "084524.052500",
        "084524.852500",
        "084525.652500",
        "084526.452500",
        "084527.252500",
        "084528.052500",
        "084528.852500",
        "084529.652500",
        "084530.452500",
        "084531.252500",
        "084532.052500",
        "084532.852500",
        "084533.652500",
        "084534.452500",
        "084535.252500",
        "084536.052500",
        "084536.852500",
        "084537.652500",
        "084538.452500",
        "084539.252500",
        "084540.052500",
        "084540.852500",
        "084541.652500",
        "084542.452500",
        "084543.252500",
        "084544.052500",
        "084544.852500",
        "084545.652500",
        "084546.452500",
        "084547.252500",
        "084548.052500",
        "084548.852500",
        "084549.652500",
        "084550.452500",
        "084551.252500",
        "084552.052500",
        "084552.852500",
        "084553.652500",
        "084554.452500",
        "084555.252500",
        "084556.052500",
        "084556.852500",
        "084557.652500",
        "084558.452500",
        "084559.252500",
        "084600.052500",
        "084600.852500",
        "084601.652500",
        "084602.452500",
        "084603.252500",
        "084604.052500",
        "084604.852500",
        "084605.652500",
        "084606.452500",
        "084607.252500",
        "084608.052500",
        "084608.852500",
        "084609.652500",
        "084610.452500",
        "084611.252500",
        "084612.052500",
        "084612.852500",
        "084613.652500",
        "084614.452500",
        "084615.252500",
        "084616.052500",
        "084616.852500",
        "084617.652500",
        "084618.452500",
        "084619.252500",
        "084620.052500",
        "084620.852500",
        "084621.652500",
        "084622.452500",
        "084623.252500",
        "084624.052500",
        "084624.852500",
        "084625.652500",
        "084626.452500",
        "084627.252500",
        "084628.052500",
        "084628.852500",
        "084629.652500",
        "084630.452500",
        "084631.252500",
        "084632.052500",
        "084632.852500",
        "084633.652500",
        "084634.452500",
        "084635.252500",
        "084636.052500",
        "084636.852500",
        "084637.652500",
        "084638.452500",
        "084639.252500",
        "084640.052500",
        "084640.852500",
        "084641.652500",
        "084642.452500",
        "084643.252500",
        "084644.052500",
        "084644.852500",
        "084645.652500",
        "084646.452500",
        "084647.252500",
        "084648.052500",
        "084648.852500",
        "084649.652500",
        "084650.452500",
        "084651.252500",
        "084652.052500",
        "084652.852500",
        "084653.652500",
        "084654.452500",
        "084655.252500",
        "084656.052500",
        "084656.852500",
        "084657.652500",
        "084658.452500",
        "084659.252500",
        "084700.052500",
        "084700.852500",
        "084701.652500",
        "084702.452500",
        "084703.252500",
        "084704.052500",
        "084704.852500",
        "084705.652500",
        "084706.452500",
        "084707.252500",
        "084708.052500",
        "084708.852500",
        "084709.652500",
        "084710.452500",
        "084711.252500",
        "084712.052500",
        "084712.852500",
        "084713.652500",
        "084714.452500",
        "084715.252500",
        "084716.052500",
        "084716.852500",
        "084717.652500",
        "084718.452500",
        "084719.252500",
        "084720.052500",
        "084720.852500",
        "084721.652500",
        "084722.452500",
        "084723.252500",
        "084724.052500",
        "084724.852500",
        "084725.652500",
        "084726.452500",
        "084727.252500",
        "084728.052500",
        "084728.852500",
        "084729.652500",
        "084730.452500",
        "084731.252500",
        "084732.052500",
        "084732.852500",
        "084733.652500",
        "084734.452500",
        "084735.252500",
        "084736.052500",
        "084736.852500",
        "084737.652500",
        "084738.452500",
        "084739.252500",
        "084740.052500",
        "084740.852500",
        "084741.652500",
        "084742.452500",
        "084743.252500",
        "084744.052500",
        "084744.852500",
        "084745.652500",
        "084746.452500",
        "084747.252500",
        "084748.052500",
        "084748.852500",
        "084749.652500",
        "084750.452500",
        "084751.252500",
        "084752.052500",
        "084752.852500",
        "084753.652500",
        "084754.452500",
        "084755.252500",
        "084756.052500",
        "084756.852500",
        "084757.652500",
        "084758.452500",
        "084759.252500",
        "084800.052500",
        "084800.852500",
        "084801.652500",
        "084802.452500",
        "084803.252500",
        "084804.052500",
        "084804.852500",
        "084805.652500",
        "084806.452500",
        "084807.252500",
        "084808.052500",
        "084808.852500",
        "084809.652500",
        "084810.452500",
        "084811.252500",
        "084812.052500",
        "084812.852500",
        "084813.652500",
        "084814.452500",
        "084815.252500",
        "084816.052500",
        "084816.852500",
        "084817.652500",
        "084818.452500",
        "084819.252500",
        "084820.052500",
        "084820.852500",
        "084821.652500",
        "084822.452500",
        "084823.252500",
        "084824.052500",
        "084824.852500",
        "084825.652500",
        "084826.452500",
        "084827.252500",
        "084828.052500",
        "084828.852500",
        "084829.652500",
        "084830.452500",
        "084831.252500",
        "084832.052500",
        "084832.852500",
        "084833.652500",
        "084834.452500",
        "084835.252500",
        "084836.052500",
        "084836.852500",
        "084837.652500",
        "084838.452500",
        "084839.252500",
        "084840.052500",
        "084840.852500",
        "084841.652500",
        "084842.452500",
        "084843.252500",
        "084844.052500",
        "084844.852500",
        "084845.652500",
        "084846.452500",
        "084847.252500",
        "084848.052500",
        "084848.852500",
        "084849.652500",
        "084850.452500",
        "084851.252500",
        "084852.052500",
        "084852.852500",
        "084853.652500",
        "084854.452500",
        "084855.252500",
        "084856.052500",
        "084856.852500",
        "084857.652500",
        "084858.452500",
        "084859.252500",
        "084900.052500",
        "084900.852500",
        "084901.652500",
        "084902.452500",
        "084903.252500",
        "084904.052500",
        "084904.852500",
        "084905.652500",
        "084906.452500",
        "084907.252500",
        "084908.052500",
        "084908.852500",
        "084909.652500",
        "084910.452500",
        "084911.252500",
        "084912.052500",
        "084912.852500",
        "084913.652500",
        "084914.452500",
        "084915.252500"
      ],
      "ContentTime": [
        "084158.420000",
        "084158.424000",
        "084158.426000",
        "084158.429000",
        "084158.443000",
        "084158.454000",
        "084158.457000",
        "084158.460000",
        "084158.463000",
        "084158.466000",
        "084158.469000",
        "084158.471000",
        "084158.474000",
        "084158.477000",
        "084158.480000",
        "084158.483000",
        "084158.486000",
        "084158.489000",
        "084158.491000",
        "084158.494000",
        "084158.497000",
        "084158.500000",
        "084158.503000",
        "084158.506000",
        "084158.509000",
        "084158.512000",
        "084218.390000",
        "084218.393000",
        "084218.396000",
        "084218.399000",
        "084218.402000",
        "084218.404000",
        "084218.407000",
        "084218.410000",
        "084218.413000",
        "084218.416000",
        "084218.419000",
        "084218.422000",
        "084218.424000",
        "084218.427000",
        "084218.430000",
        "084218.433000",
        "084218.436000",
        "084218.438000",
        "084218.441000",
        "084218.444000",
        "084218.447000",
        "084218.450000",
        "084218.453000",
        "084218.456000",
        "084218.458000",
        "084218.465000",
        "084218.468000",
        "084218.471000",
        "084218.474000",
        "084218.477000",
        "084218.479000",
        "084218.482000",
        "084218.485000",
        "084218.488000",
        "084218.491000",
        "084218.494000",
        "084218.496000",
        "084218.499000",
        "084218.502000",
        "084218.505000",
        "084218.508000",
        "084218.511000",
        "084218.514000",
        "084218.517000",
        "084218.519000",
        "084218.522000",
        "084218.525000",
        "084238.390000",
        "084238.393000",
        "084238.396000",
        "084238.399000",
        "084238.401000",
        "084238.410000",
        "084238.413000",
        "084238.415000",
        "084238.418000",
        "084238.421000",
        "084238.424000",
        "084238.427000",
        "084238.430000",
        "084238.433000",
        "084238.435000",
        "084238.438000",
        "084238.441000",
        "084238.444000",
        "084238.447000",
        "084238.450000",
        "084238.452000",
        "084238.455000",
        "084238.458000",
        "084238.461000",
        "084238.464000",
        "084258.390000",
        "084258.393000",
        "084258.396000",
        "084258.414000",
        "084258.421000",
        "084258.424000",
        "084258.427000",
        "084258.430000",
        "084258.432000",
        "084258.435000",
        "084258.438000",
        "084258.441000",
        "084258.444000",
        "084258.447000",
        "084258.450000",
        "084258.452000",
        "084258.455000",
        "084258.458000",
        "084258.461000",
        "084258.464000",
        "084258.467000",
        "084258.469000",
        "084258.473000",
        "084258.475000",
