{
  "AcquisitionMatrixPE": 140,
  "AcquisitionNumber": 1,
  "AcquisitionTime": "08:59:12.072500",
  "BandwidthPerPixelPhaseEncode": 10.352,
  "BaseResolution": 140,
  "BodyPartExamined": "BRAIN",
  "CoilCombinationMethod": "Sum of Squares",
  "ConsistencyInfo": "N4_VE11C_LATEST_20160120",
  "ConversionSoftware": "dcm2niix",
  "ConversionSoftwareVersion": "v1.0.20220720",
  "DerivedVendorReportedEchoSpacing": 0.000689998,
  "DeviceSerialNumber": "67026",
  "DiffusionScheme": "Monopolar",
  "DwellTime": 2.1e-06,
  "EchoTime": 0.0892,
  "EchoTrainLength": 105,
  "EffectiveEchoSpacing": 0.000689998,
  "FlipAngle": 78,
  "HeudiconvVersion": "0.11.4",
  "ImageComments": "Unaliased MB4/PE3/LB SENSE1",
  "ImageOrientationPatientDICOM": [
    0.996899,
    -0.0688309,
    -0.0381423,
    0.0602745,
    0.979497,
    -0.192231
  ],
  "ImageOrientationText": "Tra>Cor(-10.9)>Sag(-2.9)",
  "ImageType": [
    "ORIGINAL",
    "PRIMARY",
    "DIFFUSION",
    "NONE",
    "MB",
    "ND",
    "MOSAIC"
  ],
  "ImagingFrequency": 123.186,
  "InPlanePhaseEncodingDirectionDICOM": "COL",
  "InstitutionAddress": "13th St. 149,Charlestown,MA,US,02129",
  "InstitutionName": "Martinos Center Bay 4 Prisma",
  "InstitutionalDepartmentName": "Martinos Center",
  "MRAcquisitionType": "2D",
  "MagneticFieldStrength": 3,
  "Manufacturer": "Siemens",
  "ManufacturersModelName": "Prisma_fit",
  "MatrixCoilMode": "SENSE",
  "Modality": "MR",
  "MultibandAccelerationFactor": 4,
  "NonlinearGradientCorrection": false,
  "PartialFourier": 0.75,
  "PatientPosition": "HFS",
  "PercentPhaseFOV": 100,
  "PercentSampling": 100,
  "PhaseEncodingDirection": "j-",
  "PhaseEncodingSteps": 105,
  "PhaseResolution": 1,
  "PixelBandwidth": 1700,
  "ProcedureStepDescription": "INVESTIGATORS^Greve",
  "ProtocolName": "dMRI_dir98_AP",
  "PulseSequenceDetails": "%CustomerSeq%\\hcp_mbep2d_diff",
  "ReceiveCoilActiveElements": "HEA;HEP",
  "ReceiveCoilName": "Head_32",
  "ReconMatrixPE": 140,
  "RepetitionTime": 3.23,
  "SAR": 0.148722,
  "ScanOptions": "PFP\\EXT",
  "ScanningSequence": "EP",
  "SequenceName": "ep_b5#1",
  "SequenceVariant": "SK\\SS",
  "SeriesDescription": "dMRI_dir98_AP",
  "SeriesNumber": 42,
  "ShimSetting": [
    -1208,
    -10539,
    -10167,
    675,
    179,
    130,
    39,
    16
  ],
  "SliceThickness": 1.5,
  "SliceTiming": [
    0,
    1.675,
    0.14,
    1.815,
    0.28,
    1.955,
    0.42,
    2.095,
    0.5575,
    2.2325,
    0.6975,
    2.3725,
    0.8375,
    2.5125,
    0.9775,
    2.6525,
    1.1175,
    2.7925,
    1.2575,
    2.93,
    1.395,
    3.07,
    1.535,
    0,
    1.675,
    0.14,
    1.815,
    0.28,
    1.955,
    0.42,
    2.095,
    0.5575,
    2.2325,
    0.6975,
    2.3725,
    0.8375,
    2.5125,
    0.9775,
    2.6525,
    1.1175,
    2.7925,
    1.2575,
    2.93,
    1.395,
    3.07,
    1.535,
    0,
    1.675,
    0.14,
    1.815,
    0.28,
    1.955,
    0.42,
    2.095,
    0.5575,
    2.2325,
    0.6975,
    2.3725,
    0.8375,
    2.5125,
    0.9775,
    2.6525,
    1.1175,
    2.7925,
    1.2575,
    2.93,
    1.395,
    3.07,
    1.535,
    0,
    1.675,
    0.14,
    1.815,
    0.28,
    1.955,
    0.42,
    2.095,
    0.5575,
    2.2325,
    0.6975,
    2.3725,
    0.8375,
    2.5125,
    0.9775,
    2.6525,
    1.1175,
    2.7925,
    1.2575,
    2.93,
    1.395,
    3.07,
    1.535
  ],
  "SoftwareVersions": "syngo MR E11",
  "SpacingBetweenSlices": 1.5,
  "StationName": "BAY4OC",
  "TotalReadoutTime": 0.0959097,
  "TxRefAmp": 236.537,
  "WipMemBlock": "48255278-568d-464e-8cf4-6cdf46aa6281||Sequence: ve11c/master r/5b0256d+; Dec  9 2016 09:48:43 by eja",
  "dcmmeta_affine": [
    [
      -1.495348334312439,
      0.09041168540716171,
      -0.07588750869035721,
      100.31917572021484
    ],
    [
      0.10324635356664658,
      1.4692455530166626,
      -0.28400325775146484,
      -81.7527847290039
    ],
    [
      -0.057213447988033295,
      0.28834596276283264,
      1.4709123373031616,
      -61.03689956665039
    ],
    [
      0,
      0,
      0,
      1
    ]
  ],
  "dcmmeta_reorient_transform": [
    [
      0,
      -1,
      0,
      139
    ],
    [
      1,
      0,
      0,
      0
    ],
    [
      0,
      0,
      1,
      0
    ],
    [
      0,
      0,
      0,
      1
    ]
  ],
  "dcmmeta_shape": [
    140,
    140,
    92,
    99
  ],
  "dcmmeta_slice_dim": 2,
  "dcmmeta_version": 0.6,
  "time": {
    "samples": {
      "AcquisitionNumber": [
        1,
        2,
        3,
        4,
        5,
        6,
        7,
        8,
        9,
        10,
        11,
        12,
        13,
        14,
        15,
        16,
        17,
        18,
        19,
        20,
        21,
        22,
        23,
        24,
        25,
        26,
        27,
        28,
        29,
        30,
        31,
        32,
        33,
        34,
        35,
        36,
        37,
        38,
        39,
        40,
        41,
        42,
        43,
        44,
        45,
        46,
        47,
        48,
        49,
        50,
        51,
        52,
        53,
        54,
        55,
        56,
        57,
        58,
        59,
        60,
        61,
        62,
        63,
        64,
        65,
        66,
        67,
        68,
        69,
        70,
        71,
        72,
        73,
        74,
        75,
        76,
        77,
        78,
        79,
        80,
        81,
        82,
        83,
        84,
        85,
        86,
        87,
        88,
        89,
        90,
        91,
        92,
        93,
        94,
        95,
        96,
        97,
        98,
        99
      ],
      "AcquisitionTime": [
        "085912.072500",
        "085915.302500",
        "085918.532500",
        "085921.762500",
        "085924.992500",
        "085928.222500",
        "085931.452500",
        "085934.682500",
        "085937.912500",
        "085941.142500",
        "085944.372500",
        "085947.602500",
        "085950.832500",
        "085954.062500",
        "085957.292500",
        "090000.522500",
        "090003.752500",
        "090006.982500",
        "090010.212500",
        "090013.442500",
        "090016.672500",
        "090019.902500",
        "090023.132500",
        "090026.362500",
        "090029.592500",
        "090032.822500",
        "090036.052500",
        "090039.282500",
        "090042.512500",
        "090045.742500",
        "090048.972500",
        "090052.202500",
        "090055.432500",
        "090058.662500",
        "090101.892500",
        "090105.122500",
        "090108.352500",
        "090111.582500",
        "090114.812500",
        "090118.042500",
        "090121.272500",
        "090124.502500",
        "090127.732500",
        "090130.962500",
        "090134.192500",
        "090137.422500",
        "090140.652500",
        "090143.882500",
        "090147.112500",
        "090150.342500",
        "090153.572500",
        "090156.802500",
        "090200.032500",
        "090203.262500",
        "090206.492500",
        "090209.722500",
        "090212.952500",
        "090216.182500",
        "090219.412500",
        "090222.642500",
        "090225.872500",
        "090229.102500",
        "090232.332500",
        "090235.562500",
        "090238.792500",
        "090242.022500",
        "090245.252500",
        "090248.482500",
        "090251.712500",
        "090254.942500",
        "090258.172500",
        "090301.402500",
        "090304.632500",
        "090307.862500",
        "090311.092500",
        "090314.322500",
        "090317.552500",
        "090320.782500",
        "090324.012500",
        "090327.242500",
        "090330.472500",
        "090333.702500",
        "090336.932500",
        "090340.162500",
        "090343.392500",
        "090346.622500",
        "090349.852500",
        "090353.082500",
        "090356.312500",
        "090359.542500",
        "090402.772500",
        "090406.002500",
        "090409.232500",
        "090412.462500",
        "090415.692500",
        "090418.922500",
        "090422.152500",
        "090425.382500",
        "090428.612500"
      ],
      "ContentTime": [
        "090107.793000",
        "090107.797000",
        "090107.800000",
        "090107.803000",
        "090107.807000",
        "090127.755000",
        "090127.763000",
        "090127.766000",
        "090127.770000",
        "090127.775000",
        "090127.778000",
        "090127.781000",
        "090127.785000",
        "090127.788000",
        "090127.792000",
        "090127.795000",
        "090127.798000",
        "090127.802000",
        "090127.805000",
        "090127.808000",
        "090127.812000",
        "090127.815000",
        "090127.818000",
        "090127.822000",
        "090127.825000",
        "090207.754000",
        "090207.758000",
        "090207.766000",
        "090207.769000",
        "090207.772000",
        "090207.776000",
        "090207.779000",
        "090207.782000",
        "090207.785000",
        "090207.789000",
        "090207.792000",
        "090207.796000",
        "090207.799000",
        "090207.802000",
        "090207.806000",
        "090207.809000",
        "090207.812000",
        "090207.816000",
        "090207.819000",
        "090207.822000",
        "090207.825000",
        "090207.829000",
        "090207.832000",
        "090207.835000",
        "090207.838000",
        "090207.842000",
        "090207.845000",
        "090207.848000",
        "090207.851000",
        "090327.754000",
        "090327.758000",
        "090327.761000",
        "090327.764000",
        "090327.768000",
        "090327.771000",
        "090327.774000",
        "090327.778000",
        "090327.781000",
        "090327.784000",
        "090327.788000",
        "090327.791000",
        "090327.794000",
        "090327.798000",
        "090327.801000",
        "090327.805000",
        "090327.808000",
        "090327.811000",
        "090327.815000",
        "090327.818000",
        "090327.822000",
        "090327.825000",
        "090327.828000",
        "090327.832000",
        "090432.818000",
        "090432.821000",
        "090432.825000",
        "090432.828000",
        "090432.831000",
        "090432.835000",
        "090432.838000",
        "090432.842000",
        "090432.845000",
        "090432.848000",
        "090432.852000",
        "090432.855000",
        "090432.858000",
        "090432.862000",
        "090432.865000",
        "090432.869000",
        "090432.872000",
        "090432.876000",
        "090432.879000",
        "090432.882000",
        "090432.886000"
      ],
      "InstanceCreationTime": [
        "090107.793000",
        "090107.797000",
        "090107.800000",
        "090107.803000",
        "090107.807000",
        "090127.755000",
        "090127.763000",
        "090127.766000",
        "090127.770000",
        "090127.775000",
        "090127.778000",
        "090127.781000",
        "090127.785000",
        "090127.788000",
        "090127.792000",
        "090127.795000",
        "090127.798000",
        "090127.802000",
        "090127.805000",
        "090127.808000",
        "090127.812000",
        "090127.815000",
        "090127.818000",
        "090127.822000",
        "090127.825000",
        "090207.754000",
        "090207.758000",
        "090207.766000",
        "090207.769000",
        "090207.772000",
        "090207.776000",
        "090207.779000",
        "090207.782000",
        "090207.785000",
        "090207.789000",
        "090207.792000",
        "090207.796000",
        "090207.799000",
        "090207.802000",
        "090207.806000",
        "090207.809000",
        "090207.812000",
        "090207.816000",
        "090207.819000",
        "090207.822000",
        "090207.825000",
        "090207.829000",
        "090207.832000",
        "090207.835000",
        "090207.838000",
        "090207.842000",
        "090207.845000",
        "090207.848000",
        "090207.851000",
        "090327.754000",
        "090327.758000",
        "090327.761000",
        "090327.764000",
        "090327.768000",
        "090327.771000",
        "090327.774000",
        "090327.778000",
        "090327.781000",
        "090327.784000",
        "090327.788000",
        "090327.791000",
        "090327.794000",
        "090327.798000",
        "090327.801000",
        "090327.805000",
        "090327.808000",
        "090327.811000",
        "090327.815000",
        "090327.818000",
        "090327.822000",
        "090327.825000",
        "090327.828000",
        "090327.832000",
        "090432.818000",
        "090432.821000",
        "090432.825000",
        "090432.828000",
        "090432.831000",
        "090432.835000",
        "090432.838000",
        "090432.842000",
        "090432.845000",
        "090432.848000",
        "090432.852000",
        "090432.855000",
        "090432.858000",
        "090432.862000",
        "090432.865000",
        "090432.869000",
        "090432.872000",
        "090432.876000",
        "090432.879000",
        "090432.882000",
        "090432.886000"
      ],
      "InstanceNumber": [
        1,
        2,
        3,
        4,
        5,
        6,
        7,
        8,
        9,
        10,
        11,
        12,
        13,
        14,
        15,
        16,
        17,
        18,
        19,
        20,
        21,
        22,
        23,
        24,
        25,
        26,
        27,
        28,
        29,
        30,
        31,
        32,
        33,
        34,
        35,
        36,
        37,
        38,
        39,
        40,
        41,
        42,
        43,
        44,
        45,
        46,
        47,
        48,
        49,
        50,
        51,
        52,
        53,
        54,
        55,
        56,
        57,
        58,
        59,
        60,
        61,
        62,
        63,
        64,
        65,
        66,
        67,
        68,
        69,
        70,
        71,
        72,
        73,
        74,
        75,
        76,
        77,
        78,
        79,
        80,
        81,
        82,
        83,
        84,
        85,
        86,
        87,
        88,
        89,
        90,
        91,
        92,
        93,
        94,
        95,
        96,
        97,
        98,
        99
      ],
      "LargestImagePixelValue": [
        31962,
        31544,
        5431,
        2473,
        5326,
        3014,
        5071,
        3074,
        5308,
        2821,
        5110,
        2632,
        4776,
        2915,
        4833,
        3489,
        5360,
        31375,
        3068,
        5237,
        2497,
        5456,
        3266,
        5717,
        2910,
        4850,
        2558,
        5466,
        3153,
        4638,
        2695,
        5733,
        2722,
        32438,
        5270,
        2554,
        5163,
        2714,
        4705,
        2455,
        5543,
        2548,
        5225,
        2830,
        5341,
        2700,
        5081,
        3321,
        5774,
        31077,
        3103,
        4586,
        2776,
        5178,
        3644,
        5289,
        2594,
        5124,
        2492,
        5591,
        2966,
        4770,
        2954,
        5280,
        2781,
        40968,
        5389,
        2956,
        4870,
        2408,
        5956,
        3310,
        5132,
        2712,
        5380,
        2844,
        5016,
        2860,
        4911,
        2705,
        4941,
        32766,
        2855,
        5638,
        2474,
        4959,
        3315,
        5475,
        2622,
        4541,
        3027,
        5564,
        2866,
        5040,
        2916,
        5541,
        3134,
        4782,
        2771
      ],
      "SequenceName": [
        "ep_b5#1",
        "ep_b5#1",
        "ep_b1490#2",
        "ep_b2990#3",
        "ep_b1495#4",
        "ep_b3005#5",
        "ep_b1500#6",
        "ep_b2985#7",
        "ep_b1495#8",
        "ep_b3005#9",
        "ep_b1490#10",
        "ep_b2995#11",
        "ep_b1490#12",
        "ep_b2985#13",
        "ep_b1500#14",
        "ep_b2985#15",
        "ep_b1500#16",
        "ep_b5#17",
        "ep_b3005#18",
        "ep_b1490#19",
        "ep_b2995#20",
        "ep_b1500#21",
        "ep_b3000#22",
        "ep_b1495#23",
        "ep_b3005#24",
        "ep_b1490#25",
        "ep_b2985#26",
        "ep_b1505#27",
        "ep_b2995#28",
        "ep_b1500#29",
        "ep_b3000#30",
        "ep_b1490#31",
        "ep_b3005#32",
        "ep_b5#33",
        "ep_b1505#34",
        "ep_b3000#35",
        "ep_b1490#36",
        "ep_b2980#37",
        "ep_b1495#38",
        "ep_b2995#39",
        "ep_b1505#40",
        "ep_b2995#41",
        "ep_b1500#42",
        "ep_b2985#43",
        "ep_b1495#44",
        "ep_b3000#45",
        "ep_b1495#46",
        "ep_b3000#47",
        "ep_b1490#48",
        "ep_b5#49",
        "ep_b3005#50",
        "ep_b1500#51",
        "ep_b2990#52",
        "ep_b1505#53",
        "ep_b2995#54",
        "ep_b1495#55",
        "ep_b2985#56",
        "ep_b1490#57",
        "ep_b2995#58",
        "ep_b1500#59",
        "ep_b3000#60",
        "ep_b1500#61",
        "ep_b2985#62",
        "ep_b1500#63",
        "ep_b2990#64",
        "ep_b5#65",
        "ep_b1505#66",
        "ep_b3005#67",
        "ep_b1495#68",
        "ep_b3000#69",
        "ep_b1505#70",
        "ep_b3010#71",
        "ep_b1500#72",
        "ep_b3005#73",
        "ep_b1490#74",
        "ep_b2995#75",
        "ep_b1490#76",
        "ep_b3000#77",
        "ep_b1505#78",
        "ep_b3000#79",
        "ep_b1490#80",
        "ep_b5#81",
        "ep_b2985#82",
        "ep_b1500#83",
        "ep_b2985#84",
        "ep_b1490#85",
        "ep_b2995#86",
        "ep_b1495#87",
        "ep_b2995#88",
        "ep_b1490#89",
        "ep_b2980#90",
        "ep_b1500#91",
        "ep_b3000#92",
        "ep_b1490#93",
        "ep_b3005#94",
        "ep_b1495#95",
        "ep_b2990#96",
        "ep_b1500#97",
        "ep_b3000#98"
      ],
      "TriggerTime": [
        18777.5,
        22007.5,
        25237.5,
        28467.5,
        31697.5,
        34927.5,
        38157.5,
        41387.5,
        44617.5,
        47847.5,
        51077.5,
        54307.5,
        57537.5,
        60767.5,
        63997.5,
        67227.5,
        70457.5,
        73687.5,
        76917.5,
        80147.5,
        83377.5,
        86607.5,
        89837.5,
        93067.5,
        96297.5,
        99527.5,
        102757.5,
        105987.5,
        109217.5,
        112447.5,
        115677.5,
        118907.5,
        122137.5,
        125367.5,
        128597.5,
        131827.5,
        135057.5,
        138287.5,
        141517.5,
        144747.5,
        147977.5,
        151207.5,
        154437.5,
        157667.5,
        160897.5,
        164127.5,
        167357.5,
        170587.5,
        173817.5,
        177047.5,
        180277.5,
        183507.5,
        186737.5,
        189967.5,
        193197.5,
        196427.5,
        199657.5,
        202887.5,
        206117.5,
        209347.5,
        212577.5,
        215807.5,
        219037.5,
        222267.5,
        225497.5,
        228727.5,
        231957.5,
        235187.5,
        238417.5,
        241647.5,
        244877.5,
        248107.5,
        251337.5,
        254567.5,
        257797.5,
        261027.5,
        264257.5,
        267487.5,
        270717.5,
        273947.5,
        277177.5,
        280407.5,
        283637.5,
        286867.5,
        290097.5,
        293327.5,
        296557.5,
        299787.5,
        303017.5,
        306247.5,
        309477.5,
        312707.5,
        315937.5,
        319167.5,
        322397.5,
        325627.5,
        328857.5,
        332087.5,
        335317.5
      ],
      "WindowCenter": [
        4274,
        4277,
        1651,
        954,
        1666,
        975,
        1664,
        976,
        1665,
        942,
        1638,
        956,
        1656,
        990,
        1638,
        1006,
        1637,
        4280,
        988,
        1669,
        953,
        1665,
        980,
        1650,
        983,
        1622,
        933,
        1637,
        996,
        1643,
        935,
        1668,
        975,
        4266,
        1639,
        938,
        1637,
        944,
        1650,
        972,
        1653,
        936,
        1621,
        979,
        1668,
        934,
        1638,
        983,
        1664,
        4261,
        971,
        1642,
        984,
        1622,
        995,
        1665,
        966,
        1669,
        930,
        1653,
        947,
        1623,
        956,
        1678,
        966,
        4403,
        1636,
        980,
        1644,
        953,
        1650,
        976,
        1651,
        928,
        1648,
        984,
        1654,
        982,
        1641,
        935,
        1637,
        4271,
        975,
        1651,
        935,
        1654,
        982,
        1635,
        954,
        1610,
        958,
        1651,
        983,
        1668,
        965,
        1650,
        995,
        1625,
        975
      ],
      "WindowWidth": [
        9718,
        9734,
        4189,
        2599,
        4224,
        2632,
        4220,
        2641,
        4219,
        2552,
        4166,
        2601,
        4207,
        2688,
        4173,
        2709,
        4163,
        9751,
        2660,
        4233,
        2595,
        4218,
        2654,
        4185,
        2663,
        4135,
        2536,
        4159,
        2692,
        4186,
        2545,
        4229,
        2632,
        9723,
        4168,
        2557,
        4163,
        2556,
        4191,
        2642,
        4195,
        2550,
        4131,
        2646,
        4231,
        2541,
        4166,
        2665,
        4216,
        9699,
        2619,
        4181,
        2667,
        4135,
        2690,
        4219,
        2616,
        4231,
        2530,
        4198,
        2571,
        4139,
        2585,
        4246,
        2624,
        9947,
        4157,
        2653,
        4184,
        2594,
        4183,
        2637,
        4193,
        2518,
        4181,
        2668,
        4199,
        2659,
        4174,
        2547,
        4169,
        9706,
        2632,
        4189,
        2547,
        4198,
        2663,
        4157,
        2595,
        4110,
        2589,
        4190,
        2665,
        4228,
        2616,
        4189,
        2691,
        4142,
        2632
      ]
    },
    "slices": {}
  }
}
