{
  "AcquisitionMatrixPE": 104,
  "AcquisitionNumber": 1,
  "AcquisitionTime": "09:19:22.177500",
  "BandwidthPerPixelPhaseEncode": 16.578,
  "BaseResolution": 104,
  "BodyPartExamined": "BRAIN",
  "CoilCombinationMethod": "Sum of Squares",
  "ConsistencyInfo": "N4_VE11C_LATEST_20160120",
  "ConversionSoftware": "dcm2niix",
  "ConversionSoftwareVersion": "v1.0.20220720",
  "DerivedVendorReportedEchoSpacing": 0.000580009,
  "DeviceSerialNumber": "67026",
  "DwellTime": 2.1e-06,
  "EchoTime": 0.037,
  "EchoTrainLength": 104,
  "EffectiveEchoSpacing": 0.000580009,
  "FlipAngle": 52,
  "HeudiconvVersion": "0.11.4",
  "ImageComments": "Unaliased MB8/PE3/LB",
  "ImageOrientationPatientDICOM": [
    0.988554,
    0.0369734,
    -0.146266,
    -0.0670462,
    0.976172,
    -0.206381
  ],
  "ImageOrientationText": "Tra>Cor(-12.5)>Sag(-7.8)",
  "ImageType": [
    "ORIGINAL",
    "PRIMARY",
    "M",
    "MB",
    "ND",
    "MOSAIC"
  ],
  "ImagingFrequency": 123.172,
  "InPlanePhaseEncodingDirectionDICOM": "COL",
  "InstitutionAddress": "13th St. 149,Charlestown,MA,US,02129",
  "InstitutionName": "Martinos Center Bay 4 Prisma",
  "InstitutionalDepartmentName": "Martinos Center",
  "MRAcquisitionType": "2D",
  "MagneticFieldStrength": 3,
  "Manufacturer": "Siemens",
  "ManufacturersModelName": "Prisma_fit",
  "MatrixCoilMode": "SENSE",
  "Modality": "MR",
  "MultibandAccelerationFactor": 8,
  "NonlinearGradientCorrection": false,
  "PartialFourier": 1,
  "PatientPosition": "HFS",
  "PercentPhaseFOV": 100,
  "PercentSampling": 100,
  "PhaseEncodingDirection": "j-",
  "PhaseEncodingSteps": 104,
  "PhaseResolution": 1,
  "PixelBandwidth": 2290,
  "ProcedureStepDescription": "INVESTIGATORS^Greve",
  "ProtocolName": "rfMRI_REST_AP",
  "PulseSequenceDetails": "%CustomerSeq%\\hcp_mbep2d_bold",
  "ReceiveCoilActiveElements": "HEA;HEP",
  "ReceiveCoilName": "Head_32",
  "ReconMatrixPE": 104,
  "RepetitionTime": 0.8,
  "SAR": 0.0704396,
  "ScanOptions": "FS\\EXT",
  "ScanningSequence": "EP",
  "SequenceName": "epfid2d1_104",
  "SequenceVariant": "SK\\SS",
  "SeriesDescription": "rfMRI_REST_AP",
  "SeriesNumber": 46,
  "ShimSetting": [
    -1229,
    -10498,
    -10148,
    506,
    76,
    257,
    -97,
    50
  ],
  "SliceThickness": 2,
  "SliceTiming": [
    0,
    0.4325,
    0.085,
    0.52,
    0.1725,
    0.605,
    0.26,
    0.6925,
    0.345,
    0,
    0.4325,
    0.085,
    0.52,
    0.1725,
    0.605,
    0.26,
    0.6925,
    0.345,
    0,
    0.4325,
    0.085,
    0.52,
    0.1725,
    0.605,
    0.26,
    0.6925,
    0.345,
    0,
    0.4325,
    0.085,
    0.52,
    0.1725,
    0.605,
    0.26,
    0.6925,
    0.345,
    0,
    0.4325,
    0.085,
    0.52,
    0.1725,
    0.605,
    0.26,
    0.6925,
    0.345,
    0,
    0.4325,
    0.085,
    0.52,
    0.1725,
    0.605,
    0.26,
    0.6925,
    0.345,
    0,
    0.4325,
    0.085,
    0.52,
    0.1725,
    0.605,
    0.26,
    0.6925,
    0.345,
    0,
    0.4325,
    0.085,
    0.52,
    0.1725,
    0.605,
    0.26,
    0.6925,
    0.345
  ],
  "SoftwareVersions": "syngo MR E11",
  "SpacingBetweenSlices": 2,
  "StationName": "BAY4OC",
  "TaskName": "rest",
  "TotalReadoutTime": 0.0597409,
  "TxRefAmp": 232.876,
  "WipMemBlock": "0b4df305-c61d-4362-acd9-c01f72970f9f||Sequence: ve11c/master r/5b0256d+; Dec  9 2016 09:38:51 by eja",
  "dcmmeta_affine": [
    [
      -1.977108359336853,
      -0.13409239053726196,
      -0.27029964327812195,
      113.42829895019531
    ],
    [
      -0.07394672930240631,
      1.9523439407348633,
      -0.42765045166015625,
      -71.9035873413086
    ],
    [
      -0.292531281709671,
      0.41276174783706665,
      1.9349555969238281,
      -59.12699508666992
    ],
    [
      0,
      0,
      0,
      1
    ]
  ],
  "dcmmeta_reorient_transform": [
    [
      0,
      -1,
      0,
      103
    ],
    [
      1,
      0,
      0,
      0
    ],
    [
      0,
      0,
      1,
      0
    ],
    [
      0,
      0,
      0,
      1
    ]
  ],
  "dcmmeta_shape": [
    104,
    104,
    72,
    600
  ],
  "dcmmeta_slice_dim": 2,
  "dcmmeta_version": 0.6,
  "time": {
    "samples": {
      "AcquisitionNumber": [
        1,
        2,
        3,
        4,
        5,
        6,
        7,
        8,
        9,
        10,
        11,
        12,
        13,
        14,
        15,
        16,
        17,
        18,
        19,
        20,
        21,
        22,
        23,
        24,
        25,
        26,
        27,
        28,
        29,
        30,
        31,
        32,
        33,
        34,
        35,
        36,
        37,
        38,
        39,
        40,
        41,
        42,
        43,
        44,
        45,
        46,
        47,
        48,
        49,
        50,
        51,
        52,
        53,
        54,
        55,
        56,
        57,
        58,
        59,
        60,
        61,
        62,
        63,
        64,
        65,
        66,
        67,
        68,
        69,
        70,
        71,
        72,
        73,
        74,
        75,
        76,
        77,
        78,
        79,
        80,
        81,
        82,
        83,
        84,
        85,
        86,
        87,
        88,
        89,
        90,
        91,
        92,
        93,
        94,
        95,
        96,
        97,
        98,
        99,
        100,
        101,
        102,
        103,
        104,
        105,
        106,
        107,
        108,
        109,
        110,
        111,
        112,
        113,
        114,
        115,
        116,
        117,
        118,
        119,
        120,
        121,
        122,
        123,
        124,
        125,
        126,
        127,
        128,
        129,
        130,
        131,
        132,
        133,
        134,
        135,
        136,
        137,
        138,
        139,
        140,
        141,
        142,
        143,
        144,
        145,
        146,
        147,
        148,
        149,
        150,
        151,
        152,
        153,
        154,
        155,
        156,
        157,
        158,
        159,
        160,
        161,
        162,
        163,
        164,
        165,
        166,
        167,
        168,
        169,
        170,
        171,
        172,
        173,
        174,
        175,
        176,
        177,
        178,
        179,
        180,
        181,
        182,
        183,
        184,
        185,
        186,
        187,
        188,
        189,
        190,
        191,
        192,
        193,
        194,
        195,
        196,
        197,
        198,
        199,
        200,
        201,
        202,
        203,
        204,
        205,
        206,
        207,
        208,
        209,
        210,
        211,
        212,
        213,
        214,
        215,
        216,
        217,
        218,
        219,
        220,
        221,
        222,
        223,
        224,
        225,
        226,
        227,
        228,
        229,
        230,
        231,
        232,
        233,
        234,
        235,
        236,
        237,
        238,
        239,
        240,
        241,
        242,
        243,
        244,
        245,
        246,
        247,
        248,
        249,
        250,
        251,
        252,
        253,
        254,
        255,
        256,
        257,
        258,
        259,
        260,
        261,
        262,
        263,
        264,
        265,
        266,
        267,
        268,
        269,
        270,
        271,
        272,
        273,
        274,
        275,
        276,
        277,
        278,
        279,
        280,
        281,
        282,
        283,
        284,
        285,
        286,
        287,
        288,
        289,
        290,
        291,
        292,
        293,
        294,
        295,
        296,
        297,
        298,
        299,
        300,
        301,
        302,
        303,
        304,
        305,
        306,
        307,
        308,
        309,
        310,
        311,
        312,
        313,
        314,
        315,
        316,
        317,
        318,
        319,
        320,
        321,
        322,
        323,
        324,
        325,
        326,
        327,
        328,
        329,
        330,
        331,
        332,
        333,
        334,
        335,
        336,
        337,
        338,
        339,
        340,
        341,
        342,
        343,
        344,
        345,
        346,
        347,
        348,
        349,
        350,
        351,
        352,
        353,
        354,
        355,
        356,
        357,
        358,
        359,
        360,
        361,
        362,
        363,
        364,
        365,
        366,
        367,
        368,
        369,
        370,
        371,
        372,
        373,
        374,
        375,
        376,
        377,
        378,
        379,
        380,
        381,
        382,
        383,
        384,
        385,
        386,
        387,
        388,
        389,
        390,
        391,
        392,
        393,
        394,
        395,
        396,
        397,
        398,
        399,
        400,
        401,
        402,
        403,
        404,
        405,
        406,
        407,
        408,
        409,
        410,
        411,
        412,
        413,
        414,
        415,
        416,
        417,
        418,
        419,
        420,
        421,
        422,
        423,
        424,
        425,
        426,
        427,
        428,
        429,
        430,
        431,
        432,
        433,
        434,
        435,
        436,
        437,
        438,
        439,
        440,
        441,
        442,
        443,
        444,
        445,
        446,
        447,
        448,
        449,
        450,
        451,
        452,
        453,
        454,
        455,
        456,
        457,
        458,
        459,
        460,
        461,
        462,
        463,
        464,
        465,
        466,
        467,
        468,
        469,
        470,
        471,
        472,
        473,
        474,
        475,
        476,
        477,
        478,
        479,
        480,
        481,
        482,
        483,
        484,
        485,
        486,
        487,
        488,
        489,
        490,
        491,
        492,
        493,
        494,
        495,
        496,
        497,
        498,
        499,
        500,
        501,
        502,
        503,
        504,
        505,
        506,
        507,
        508,
        509,
        510,
        511,
        512,
        513,
        514,
        515,
        516,
        517,
        518,
        519,
        520,
        521,
        522,
        523,
        524,
        525,
        526,
        527,
        528,
        529,
        530,
        531,
        532,
        533,
        534,
        535,
        536,
        537,
        538,
        539,
        540,
        541,
        542,
        543,
        544,
        545,
        546,
        547,
        548,
        549,
        550,
        551,
        552,
        553,
        554,
        555,
        556,
        557,
        558,
        559,
        560,
        561,
        562,
        563,
        564,
        565,
        566,
        567,
        568,
        569,
        570,
        571,
        572,
        573,
        574,
        575,
        576,
        577,
        578,
        579,
        580,
        581,
        582,
        583,
        584,
        585,
        586,
        587,
        588,
        589,
        590,
        591,
        592,
        593,
        594,
        595,
        596,
        597,
        598,
        599,
        600
      ],
      "AcquisitionTime": [
        "091922.177500",
        "091922.977500",
        "091923.777500",
        "091924.577500",
        "091925.377500",
        "091926.177500",
        "091926.977500",
        "091927.777500",
        "091928.577500",
        "091929.377500",
        "091930.177500",
        "091930.977500",
        "091931.777500",
        "091932.577500",
        "091933.377500",
        "091934.177500",
        "091934.977500",
        "091935.777500",
        "091936.577500",
        "091937.377500",
        "091938.177500",
        "091938.977500",
        "091939.777500",
        "091940.577500",
        "091941.377500",
        "091942.177500",
        "091942.977500",
        "091943.777500",
        "091944.577500",
        "091945.377500",
        "091946.177500",
        "091946.977500",
        "091947.777500",
        "091948.577500",
        "091949.377500",
        "091950.177500",
        "091950.977500",
        "091951.777500",
        "091952.577500",
        "091953.377500",
        "091954.177500",
        "091954.977500",
        "091955.777500",
        "091956.577500",
        "091957.377500",
        "091958.177500",
        "091958.977500",
        "091959.777500",
        "092000.577500",
        "092001.377500",
        "092002.177500",
        "092002.977500",
        "092003.777500",
        "092004.577500",
        "092005.377500",
        "092006.177500",
        "092006.977500",
        "092007.777500",
        "092008.577500",
        "092009.377500",
        "092010.177500",
        "092010.977500",
        "092011.777500",
        "092012.577500",
        "092013.377500",
        "092014.177500",
        "092014.977500",
        "092015.777500",
        "092016.577500",
        "092017.377500",
        "092018.177500",
        "092018.977500",
        "092019.777500",
        "092020.577500",
        "092021.377500",
        "092022.177500",
        "092022.977500",
        "092023.777500",
        "092024.577500",
        "092025.377500",
        "092026.177500",
        "092026.977500",
        "092027.777500",
        "092028.577500",
        "092029.377500",
        "092030.177500",
        "092030.977500",
        "092031.777500",
        "092032.577500",
        "092033.377500",
        "092034.177500",
        "092034.977500",
        "092035.777500",
        "092036.577500",
        "092037.377500",
        "092038.177500",
        "092038.977500",
        "092039.777500",
        "092040.577500",
        "092041.377500",
        "092042.177500",
        "092042.977500",
        "092043.777500",
        "092044.577500",
        "092045.377500",
        "092046.177500",
        "092046.977500",
        "092047.777500",
        "092048.577500",
        "092049.377500",
        "092050.177500",
        "092050.977500",
        "092051.777500",
        "092052.577500",
        "092053.377500",
        "092054.177500",
        "092054.977500",
        "092055.777500",
        "092056.577500",
        "092057.377500",
        "092058.177500",
        "092058.977500",
        "092059.777500",
        "092100.577500",
        "092101.377500",
        "092102.177500",
        "092102.977500",
        "092103.777500",
        "092104.577500",
        "092105.377500",
        "092106.177500",
        "092106.977500",
        "092107.777500",
        "092108.577500",
        "092109.377500",
        "092110.177500",
        "092110.977500",
        "092111.777500",
        "092112.577500",
        "092113.377500",
        "092114.177500",
        "092114.977500",
        "092115.777500",
        "092116.577500",
        "092117.377500",
        "092118.177500",
        "092118.977500",
        "092119.777500",
        "092120.577500",
        "092121.377500",
        "092122.177500",
        "092122.977500",
        "092123.777500",
        "092124.577500",
        "092125.377500",
        "092126.177500",
        "092126.977500",
        "092127.777500",
        "092128.577500",
        "092129.377500",
        "092130.177500",
        "092130.977500",
        "092131.777500",
        "092132.577500",
        "092133.377500",
        "092134.177500",
        "092134.977500",
        "092135.777500",
        "092136.577500",
        "092137.377500",
        "092138.177500",
        "092138.977500",
        "092139.777500",
        "092140.577500",
        "092141.377500",
        "092142.177500",
        "092142.977500",
        "092143.777500",
        "092144.577500",
        "092145.377500",
        "092146.177500",
        "092146.977500",
        "092147.777500",
        "092148.577500",
        "092149.377500",
        "092150.177500",
        "092150.977500",
        "092151.777500",
        "092152.577500",
        "092153.377500",
        "092154.177500",
        "092154.977500",
        "092155.777500",
        "092156.577500",
        "092157.377500",
        "092158.177500",
        "092158.977500",
        "092159.777500",
        "092200.577500",
        "092201.377500",
        "092202.177500",
        "092202.977500",
        "092203.777500",
        "092204.577500",
        "092205.377500",
        "092206.177500",
        "092206.977500",
        "092207.777500",
        "092208.577500",
        "092209.377500",
        "092210.177500",
        "092210.977500",
        "092211.777500",
        "092212.577500",
        "092213.377500",
        "092214.177500",
        "092214.977500",
        "092215.777500",
        "092216.577500",
        "092217.377500",
        "092218.177500",
        "092218.977500",
        "092219.777500",
        "092220.577500",
        "092221.377500",
        "092222.177500",
        "092222.977500",
        "092223.777500",
        "092224.577500",
        "092225.377500",
        "092226.177500",
        "092226.977500",
        "092227.777500",
        "092228.577500",
        "092229.377500",
        "092230.177500",
        "092230.977500",
        "092231.777500",
        "092232.577500",
        "092233.377500",
        "092234.177500",
        "092234.977500",
        "092235.777500",
        "092236.577500",
        "092237.377500",
        "092238.177500",
        "092238.977500",
        "092239.777500",
        "092240.577500",
        "092241.377500",
        "092242.177500",
        "092242.977500",
        "092243.777500",
        "092244.577500",
        "092245.377500",
        "092246.177500",
        "092246.977500",
        "092247.777500",
        "092248.577500",
        "092249.377500",
        "092250.177500",
        "092250.977500",
        "092251.777500",
        "092252.577500",
        "092253.377500",
        "092254.177500",
        "092254.977500",
        "092255.777500",
        "092256.577500",
        "092257.377500",
        "092258.177500",
        "092258.977500",
        "092259.777500",
        "092300.577500",
        "092301.377500",
        "092302.177500",
        "092302.977500",
        "092303.777500",
        "092304.577500",
        "092305.377500",
        "092306.177500",
        "092306.977500",
        "092307.777500",
        "092308.577500",
        "092309.377500",
        "092310.177500",
        "092310.977500",
        "092311.777500",
        "092312.577500",
        "092313.377500",
        "092314.177500",
        "092314.977500",
        "092315.777500",
        "092316.577500",
        "092317.377500",
        "092318.177500",
        "092318.977500",
        "092319.777500",
        "092320.577500",
        "092321.377500",
        "092322.177500",
        "092322.977500",
        "092323.777500",
        "092324.577500",
        "092325.377500",
        "092326.177500",
        "092326.977500",
        "092327.777500",
        "092328.577500",
        "092329.377500",
        "092330.177500",
        "092330.977500",
        "092331.777500",
        "092332.577500",
        "092333.377500",
        "092334.177500",
        "092334.977500",
        "092335.777500",
        "092336.577500",
        "092337.377500",
        "092338.177500",
        "092338.977500",
        "092339.777500",
        "092340.577500",
        "092341.377500",
        "092342.177500",
        "092342.977500",
        "092343.777500",
        "092344.577500",
        "092345.377500",
        "092346.177500",
        "092346.977500",
        "092347.777500",
        "092348.577500",
        "092349.377500",
        "092350.177500",
        "092350.977500",
        "092351.777500",
        "092352.577500",
        "092353.377500",
        "092354.177500",
        "092354.977500",
        "092355.777500",
        "092356.577500",
        "092357.377500",
        "092358.177500",
        "092358.977500",
        "092359.777500",
        "092400.577500",
        "092401.377500",
        "092402.177500",
        "092402.977500",
        "092403.777500",
        "092404.577500",
        "092405.377500",
        "092406.177500",
        "092406.977500",
        "092407.777500",
        "092408.577500",
        "092409.377500",
        "092410.177500",
        "092410.977500",
        "092411.777500",
        "092412.577500",
        "092413.377500",
        "092414.177500",
        "092414.977500",
        "092415.777500",
        "092416.577500",
        "092417.377500",
        "092418.177500",
        "092418.977500",
        "092419.777500",
        "092420.577500",
        "092421.377500",
        "092422.177500",
        "092422.977500",
        "092423.777500",
        "092424.577500",
        "092425.377500",
        "092426.177500",
        "092426.977500",
        "092427.777500",
        "092428.577500",
        "092429.377500",
        "092430.177500",
        "092430.977500",
        "092431.777500",
        "092432.577500",
        "092433.377500",
        "092434.177500",
        "092434.977500",
        "092435.777500",
        "092436.577500",
        "092437.377500",
        "092438.177500",
        "092438.977500",
        "092439.777500",
        "092440.577500",
        "092441.377500",
        "092442.177500",
        "092442.977500",
        "092443.777500",
        "092444.577500",
        "092445.377500",
        "092446.177500",
        "092446.977500",
        "092447.777500",
        "092448.577500",
        "092449.377500",
        "092450.177500",
        "092450.977500",
        "092451.777500",
        "092452.577500",
        "092453.377500",
        "092454.177500",
        "092454.977500",
        "092455.777500",
        "092456.577500",
        "092457.377500",
        "092458.177500",
        "092458.977500",
        "092459.777500",
        "092500.577500",
        "092501.377500",
        "092502.177500",
        "092502.977500",
        "092503.777500",
        "092504.577500",
        "092505.377500",
        "092506.177500",
        "092506.977500",
        "092507.777500",
        "092508.577500",
        "092509.377500",
        "092510.177500",
        "092510.977500",
        "092511.777500",
        "092512.577500",
        "092513.377500",
        "092514.177500",
        "092514.977500",
        "092515.777500",
        "092516.577500",
        "092517.377500",
        "092518.177500",
        "092518.977500",
        "092519.777500",
        "092520.577500",
        "092521.377500",
        "092522.177500",
        "092522.977500",
        "092523.777500",
        "092524.577500",
        "092525.377500",
        "092526.177500",
        "092526.977500",
        "092527.777500",
        "092528.577500",
        "092529.377500",
        "092530.177500",
        "092530.977500",
        "092531.777500",
        "092532.577500",
        "092533.377500",
        "092534.177500",
        "092534.977500",
        "092535.777500",
        "092536.577500",
        "092537.377500",
        "092538.177500",
        "092538.977500",
        "092539.777500",
        "092540.577500",
        "092541.377500",
        "092542.177500",
        "092542.977500",
        "092543.777500",
        "092544.577500",
        "092545.377500",
        "092546.177500",
        "092546.977500",
        "092547.777500",
        "092548.577500",
        "092549.377500",
        "092550.177500",
        "092550.977500",
        "092551.777500",
        "092552.577500",
        "092553.377500",
        "092554.177500",
        "092554.977500",
        "092555.777500",
        "092556.577500",
        "092557.377500",
        "092558.177500",
        "092558.977500",
        "092559.777500",
        "092600.577500",
        "092601.377500",
        "092602.177500",
        "092602.977500",
        "092603.777500",
        "092604.577500",
        "092605.377500",
        "092606.177500",
        "092606.977500",
        "092607.777500",
        "092608.577500",
        "092609.377500",
        "092610.177500",
        "092610.977500",
        "092611.777500",
        "092612.577500",
        "092613.377500",
        "092614.177500",
        "092614.977500",
        "092615.777500",
        "092616.577500",
        "092617.377500",
        "092618.177500",
        "092618.977500",
        "092619.777500",
        "092620.577500",
        "092621.377500",
        "092622.177500",
        "092622.977500",
        "092623.777500",
        "092624.577500",
        "092625.377500",
        "092626.177500",
        "092626.977500",
        "092627.777500",
        "092628.577500",
        "092629.377500",
        "092630.177500",
        "092630.977500",
        "092631.777500",
        "092632.577500",
        "092633.377500",
        "092634.177500",
        "092634.977500",
        "092635.777500",
        "092636.577500",
        "092637.377500",
        "092638.177500",
        "092638.977500",
        "092639.777500",
        "092640.577500",
        "092641.377500",
        "092642.177500",
        "092642.977500",
        "092643.777500",
        "092644.577500",
        "092645.377500",
        "092646.177500",
        "092646.977500",
        "092647.777500",
        "092648.577500",
        "092649.377500",
        "092650.177500",
        "092650.977500",
        "092651.777500",
        "092652.577500",
        "092653.377500",
        "092654.177500",
        "092654.977500",
        "092655.777500",
        "092656.577500",
        "092657.377500",
        "092658.177500",
        "092658.977500",
        "092659.777500",
        "092700.577500",
        "092701.377500",
        "092702.177500",
        "092702.977500",
        "092703.777500",
        "092704.577500",
        "092705.377500",
        "092706.177500",
        "092706.977500",
        "092707.777500",
        "092708.577500",
        "092709.377500",
        "092710.177500",
        "092710.977500",
        "092711.777500",
        "092712.577500",
        "092713.377500",
        "092714.177500",
        "092714.977500",
        "092715.777500",
        "092716.577500",
        "092717.377500",
        "092718.177500",
        "092718.977500",
        "092719.777500",
        "092720.577500",
        "092721.377500"
      ],
      "ContentTime": [
        "092016.978000",
        "092016.982000",
        "092016.985000",
        "092016.988000",
        "092016.991000",
        "092016.994000",
        "092016.997000",
        "092017.004000",
        "092017.007000",
        "092017.010000",
        "092017.013000",
        "092017.016000",
        "092017.019000",
        "092017.022000",
        "092017.025000",
        "092017.028000",
        "092017.031000",
        "092017.033000",
        "092017.038000",
        "092017.041000",
        "092017.044000",
        "092017.047000",
        "092017.050000",
        "092017.053000",
        "092017.056000",
        "092017.059000",
        "092017.062000",
        "092017.064000",
        "092017.067000",
        "092017.070000",
        "092017.073000",
        "092017.076000",
        "092017.079000",
        "092017.082000",
        "092017.085000",
        "092017.088000",
        "092017.091000",
        "092017.094000",
        "092017.097000",
        "092017.100000",
        "092017.103000",
        "092017.106000",
        "092017.109000",
        "092017.117000",
        "092017.120000",
        "092017.123000",
        "092017.126000",
        "092017.129000",
        "092017.132000",
        "092017.135000",
        "092017.138000",
        "092017.141000",
        "092017.145000",
        "092017.149000",
        "092017.152000",
        "092017.155000",
        "092017.159000",
        "092017.162000",
        "092017.165000",
        "092017.169000",
        "092017.172000",
        "092017.175000",
        "092017.177000",
        "092017.180000",
        "092036.933000",
        "092036.936000",
        "092036.939000",
        "092036.942000",
        "092036.945000",
        "092036.948000",
        "092036.951000",
        "092036.954000",
        "092036.957000",
        "092036.960000",
        "092036.966000",
        "092036.969000",
        "092036.972000",
        "092036.975000",
        "092036.978000",
        "092036.981000",
        "092036.984000",
        "092036.986000",
        "092036.989000",
        "092036.992000",
        "092036.995000",
        "092036.998000",
        "092037.002000",
        "092037.005000",
        "092037.008000",
        "092037.011000",
        "092037.014000",
        "092037.017000",
        "092056.933000",
        "092056.936000",
        "092056.939000",
        "092056.942000",
        "092056.945000",
        "092056.948000",
        "092056.951000",
        "092056.954000",
        "092056.956000",
        "092056.960000",
        "092056.962000",
        "092056.965000",
        "092056.968000",
        "092056.971000",
        "092056.974000",
        "092056.977000",
        "092056.980000",
        "092056.983000",
        "092056.986000",
        "092056.989000",
        "092056.992000",
        "092056.995000",
        "092056.998000",
        "092057.002000",
        "092057.005000",
        "092116.933000",
        "092116.936000",
        "092116.939000",
        "092116.942000",
        "092116.945000",
