{
  "AcquisitionMatrixPE": 140,
  "AcquisitionNumber": 1,
  "AcquisitionTime": "08:35:52.887500",
  "BandwidthPerPixelPhaseEncode": 10.352,
  "BaseResolution": 140,
  "BodyPartExamined": "BRAIN",
  "CoilCombinationMethod": "Sum of Squares",
  "ConsistencyInfo": "N4_VE11C_LATEST_20160120",
  "ConversionSoftware": "dcm2niix",
  "ConversionSoftwareVersion": "v1.0.20220720",
  "DerivedVendorReportedEchoSpacing": 0.000689998,
  "DeviceSerialNumber": "67026",
  "DiffusionScheme": "Monopolar",
  "DwellTime": 2.1e-06,
  "EchoTime": 0.0892,
  "EchoTrainLength": 105,
  "EffectiveEchoSpacing": 0.000689998,
  "FlipAngle": 78,
  "HeudiconvVersion": "0.11.4",
  "ImageComments": "Unaliased MB4/PE3/LB SENSE1",
  "ImageOrientationPatientDICOM": [
    0.997418,
    -0.0533887,
    0.0480363,
    0.0692214,
    0.89289,
    -0.444922
  ],
  "ImageOrientationText": "Tra>Cor(-26.6)>Sag(1.1)",
  "ImageType": [
    "ORIGINAL",
    "PRIMARY",
    "DIFFUSION",
    "NONE",
    "MB",
    "ND",
    "MOSAIC"
  ],
  "ImagingFrequency": 123.182,
  "InPlanePhaseEncodingDirectionDICOM": "COL",
  "InstitutionAddress": "13th St. 149,Charlestown,MA,US,02129",
  "InstitutionName": "Martinos Center Bay 4 Prisma",
  "InstitutionalDepartmentName": "Martinos Center",
  "MRAcquisitionType": "2D",
  "MagneticFieldStrength": 3,
  "Manufacturer": "Siemens",
  "ManufacturersModelName": "Prisma_fit",
  "MatrixCoilMode": "SENSE",
  "Modality": "MR",
  "MultibandAccelerationFactor": 4,
  "NonlinearGradientCorrection": false,
  "PartialFourier": 0.75,
  "PatientPosition": "HFS",
  "PercentPhaseFOV": 100,
  "PercentSampling": 100,
  "PhaseEncodingDirection": "j-",
  "PhaseEncodingSteps": 105,
  "PhaseResolution": 1,
  "PixelBandwidth": 1700,
  "ProcedureStepDescription": "INVESTIGATORS^Greve",
  "ProtocolName": "dMRI_dir98_AP",
  "PulseSequenceDetails": "%CustomerSeq%\\hcp_mbep2d_diff",
  "ReceiveCoilActiveElements": "HEA;HEP",
  "ReceiveCoilName": "Head_32",
  "ReconMatrixPE": 140,
  "RepetitionTime": 3.23,
  "SAR": 0.156562,
  "ScanOptions": "PFP\\EXT",
  "ScanningSequence": "EP",
  "SequenceName": "ep_b5#1",
  "SequenceVariant": "SK\\SS",
  "SeriesDescription": "dMRI_dir98_AP",
  "SeriesNumber": 37,
  "ShimSetting": [
    -1205,
    -10501,
    -10208,
    414,
    185,
    39,
    -93,
    -52
  ],
  "SliceThickness": 1.5,
  "SliceTiming": [
    0,
    1.6725,
    0.1375,
    1.8125,
    0.2775,
    1.9525,
    0.4175,
    2.0925,
    0.5575,
    2.2325,
    0.6975,
    2.3725,
    0.835,
    2.51,
    0.975,
    2.65,
    1.115,
    2.79,
    1.255,
    2.93,
    1.395,
    3.07,
    1.535,
    0,
    1.6725,
    0.1375,
    1.8125,
    0.2775,
    1.9525,
    0.4175,
    2.0925,
    0.5575,
    2.2325,
    0.6975,
    2.3725,
    0.835,
    2.51,
    0.975,
    2.65,
    1.115,
    2.79,
    1.255,
    2.93,
    1.395,
    3.07,
    1.535,
    0,
    1.6725,
    0.1375,
    1.8125,
    0.2775,
    1.9525,
    0.4175,
    2.0925,
    0.5575,
    2.2325,
    0.6975,
    2.3725,
    0.835,
    2.51,
    0.975,
    2.65,
    1.115,
    2.79,
    1.255,
    2.93,
    1.395,
    3.07,
    1.535,
    0,
    1.6725,
    0.1375,
    1.8125,
    0.2775,
    1.9525,
    0.4175,
    2.0925,
    0.5575,
    2.2325,
    0.6975,
    2.3725,
    0.835,
    2.51,
    0.975,
    2.65,
    1.115,
    2.79,
    1.255,
    2.93,
    1.395,
    3.07,
    1.535
  ],
  "SoftwareVersions": "syngo MR E11",
  "SpacingBetweenSlices": 1.5,
  "StationName": "BAY4OC",
  "TotalReadoutTime": 0.0959097,
  "TxRefAmp": 237.135,
  "WipMemBlock": "92c0742b-9b1a-4017-b66a-520e48bc3977||Sequence: ve11c/master r/5b0256d+; Dec  9 2016 09:48:43 by eja",
  "dcmmeta_affine": [
    [
      -1.496126651763916,
      0.1038321703672409,
      0.02870597504079342,
      95.35043334960938
    ],
    [
      0.08008311688899994,
      1.3393350839614868,
      -0.6706475019454956,
      -48.27201461791992
    ],
    [
      0.07205446809530258,
      0.6673831343650818,
      1.34142005443573,
      -103.45370483398438
    ],
    [
      0,
      0,
      0,
      1
    ]
  ],
  "dcmmeta_reorient_transform": [
    [
      0,
      -1,
      0,
      139
    ],
    [
      1,
      0,
      0,
      0
    ],
    [
      0,
      0,
      1,
      0
    ],
    [
      0,
      0,
      0,
      1
    ]
  ],
  "dcmmeta_shape": [
    140,
    140,
    92,
    99
  ],
  "dcmmeta_slice_dim": 2,
  "dcmmeta_version": 0.6,
  "time": {
    "samples": {
      "AcquisitionNumber": [
        1,
        2,
        3,
        4,
        5,
        6,
        7,
        8,
        9,
        10,
        11,
        12,
        13,
        14,
        15,
        16,
        17,
        18,
        19,
        20,
        21,
        22,
        23,
        24,
        25,
        26,
        27,
        28,
        29,
        30,
        31,
        32,
        33,
        34,
        35,
        36,
        37,
        38,
        39,
        40,
        41,
        42,
        43,
        44,
        45,
        46,
        47,
        48,
        49,
        50,
        51,
        52,
        53,
        54,
        55,
        56,
        57,
        58,
        59,
        60,
        61,
        62,
        63,
        64,
        65,
        66,
        67,
        68,
        69,
        70,
        71,
        72,
        73,
        74,
        75,
        76,
        77,
        78,
        79,
        80,
        81,
        82,
        83,
        84,
        85,
        86,
        87,
        88,
        89,
        90,
        91,
        92,
        93,
        94,
        95,
        96,
        97,
        98,
        99
      ],
      "AcquisitionTime": [
        "083552.887500",
        "083556.117500",
        "083559.347500",
        "083602.577500",
        "083605.807500",
        "083609.037500",
        "083612.267500",
        "083615.497500",
        "083618.727500",
        "083621.957500",
        "083625.187500",
        "083628.417500",
        "083631.647500",
        "083634.877500",
        "083638.107500",
        "083641.337500",
        "083644.567500",
        "083647.797500",
        "083651.027500",
        "083654.257500",
        "083657.487500",
        "083700.717500",
        "083703.947500",
        "083707.177500",
        "083710.407500",
        "083713.637500",
        "083716.867500",
        "083720.097500",
        "083723.327500",
        "083726.557500",
        "083729.787500",
        "083733.017500",
        "083736.247500",
        "083739.477500",
        "083742.707500",
        "083745.937500",
        "083749.167500",
        "083752.397500",
        "083755.627500",
        "083758.857500",
        "083802.087500",
        "083805.317500",
        "083808.547500",
        "083811.777500",
        "083815.007500",
        "083818.237500",
        "083821.467500",
        "083824.697500",
        "083827.927500",
        "083831.157500",
        "083834.387500",
        "083837.617500",
        "083840.847500",
        "083844.077500",
        "083847.307500",
        "083850.537500",
        "083853.767500",
        "083856.997500",
        "083900.227500",
        "083903.457500",
        "083906.687500",
        "083909.917500",
        "083913.147500",
        "083916.377500",
        "083919.607500",
        "083922.837500",
        "083926.067500",
        "083929.297500",
        "083932.527500",
        "083935.757500",
        "083938.987500",
        "083942.217500",
        "083945.447500",
        "083948.677500",
        "083951.907500",
        "083955.137500",
        "083958.367500",
        "084001.597500",
        "084004.827500",
        "084008.057500",
        "084011.287500",
        "084014.517500",
        "084017.747500",
        "084020.977500",
        "084024.207500",
        "084027.437500",
        "084030.667500",
        "084033.897500",
        "084037.127500",
        "084040.357500",
        "084043.587500",
        "084046.817500",
        "084050.047500",
        "084053.277500",
        "084056.507500",
        "084059.737500",
        "084102.967500",
        "084106.197500",
        "084109.427500"
      ],
      "ContentTime": [
        "083705.388000",
        "083705.392000",
        "083705.395000",
        "083705.398000",
        "083705.402000",
        "083705.405000",
        "083705.409000",
        "083705.412000",
        "083705.416000",
        "083705.419000",
        "083705.423000",
        "083705.426000",
        "083705.430000",
        "083705.433000",
        "083705.436000",
        "083705.440000",
        "083705.444000",
        "083705.451000",
        "083705.455000",
        "083705.458000",
        "083705.462000",
        "083705.471000",
        "083825.329000",
        "083825.332000",
        "083825.336000",
        "083825.339000",
        "083825.347000",
        "083825.351000",
        "083825.354000",
        "083825.358000",
        "083825.362000",
        "083825.365000",
        "083825.368000",
        "083825.372000",
        "083825.375000",
        "083825.379000",
        "083825.382000",
        "083825.386000",
        "083825.390000",
        "083825.393000",
        "083825.396000",
        "083825.400000",
        "083825.404000",
        "083825.407000",
        "083825.410000",
        "083825.414000",
        "083825.417000",
        "083945.329000",
        "083945.333000",
        "083945.343000",
        "083945.347000",
        "083945.350000",
        "083945.353000",
        "083945.357000",
        "083945.361000",
        "083945.364000",
        "083945.367000",
        "083945.371000",
        "083945.374000",
        "083945.378000",
        "083945.381000",
        "083945.385000",
        "083945.388000",
        "083945.392000",
        "083945.395000",
        "083945.399000",
        "083945.402000",
        "083945.405000",
        "083945.409000",
        "083945.412000",
        "083945.416000",
        "084105.330000",
        "084105.333000",
        "084105.347000",
        "084105.350000",
        "084105.356000",
        "084105.359000",
        "084105.362000",
        "084105.366000",
        "084105.369000",
        "084105.373000",
        "084105.376000",
        "084105.380000",
        "084105.383000",
        "084105.387000",
        "084105.390000",
        "084105.394000",
        "084105.397000",
        "084105.401000",
        "084105.404000",
        "084105.408000",
        "084105.411000",
        "084105.415000",
        "084105.418000",
        "084105.421000",
        "084105.426000",
        "084113.122000",
        "084113.127000",
        "084113.130000"
      ],
      "InstanceCreationTime": [
        "083705.388000",
        "083705.392000",
        "083705.395000",
        "083705.398000",
        "083705.402000",
        "083705.405000",
        "083705.409000",
        "083705.412000",
        "083705.416000",
        "083705.419000",
        "083705.423000",
        "083705.426000",
        "083705.430000",
        "083705.433000",
        "083705.436000",
        "083705.440000",
        "083705.444000",
        "083705.451000",
        "083705.455000",
        "083705.458000",
        "083705.462000",
        "083705.471000",
        "083825.329000",
        "083825.332000",
        "083825.336000",
        "083825.339000",
        "083825.347000",
        "083825.351000",
        "083825.354000",
        "083825.358000",
        "083825.362000",
        "083825.365000",
        "083825.368000",
        "083825.372000",
        "083825.375000",
        "083825.379000",
        "083825.382000",
        "083825.386000",
        "083825.390000",
        "083825.393000",
        "083825.396000",
        "083825.400000",
        "083825.404000",
        "083825.407000",
        "083825.410000",
        "083825.414000",
        "083825.417000",
        "083945.329000",
        "083945.333000",
        "083945.343000",
        "083945.347000",
        "083945.350000",
        "083945.353000",
        "083945.357000",
        "083945.361000",
        "083945.364000",
        "083945.367000",
        "083945.371000",
        "083945.374000",
        "083945.378000",
        "083945.381000",
        "083945.385000",
        "083945.388000",
        "083945.392000",
        "083945.395000",
        "083945.399000",
        "083945.402000",
        "083945.405000",
        "083945.409000",
        "083945.412000",
        "083945.416000",
        "084105.330000",
        "084105.333000",
        "084105.347000",
        "084105.350000",
        "084105.356000",
        "084105.359000",
        "084105.362000",
        "084105.366000",
        "084105.369000",
        "084105.373000",
        "084105.376000",
        "084105.380000",
        "084105.383000",
        "084105.387000",
        "084105.390000",
        "084105.394000",
        "084105.397000",
        "084105.401000",
        "084105.404000",
        "084105.408000",
        "084105.411000",
        "084105.415000",
        "084105.418000",
        "084105.421000",
        "084105.426000",
        "084113.122000",
        "084113.127000",
        "084113.130000"
      ],
      "InstanceNumber": [
        1,
        2,
        3,
        4,
        5,
        6,
        7,
        8,
        9,
        10,
        11,
        12,
        13,
        14,
        15,
        16,
        17,
        18,
        19,
        20,
        21,
        22,
        23,
        24,
        25,
        26,
        27,
        28,
        29,
        30,
        31,
        32,
        33,
        34,
        35,
        36,
        37,
        38,
        39,
        40,
        41,
        42,
        43,
        44,
        45,
        46,
        47,
        48,
        49,
        50,
        51,
        52,
        53,
        54,
        55,
        56,
        57,
        58,
        59,
        60,
        61,
        62,
        63,
        64,
        65,
        66,
        67,
        68,
        69,
        70,
        71,
        72,
        73,
        74,
        75,
        76,
        77,
        78,
        79,
        80,
        81,
        82,
        83,
        84,
        85,
        86,
        87,
        88,
        89,
        90,
        91,
        92,
        93,
        94,
        95,
        96,
        97,
        98,
        99
      ],
      "LargestImagePixelValue": [
        24635,
        26926,
        6520,
        3918,
        5651,
        4057,
        6239,
        3846,
        5648,
        4223,
        6087,
        3633,
        6631,
        3881,
        6372,
        4017,
        6278,
        28078,
        3827,
        6400,
        3957,
        5921,
        3641,
        5492,
        3943,
        6576,
        3889,
        6276,
        4143,
        5799,
        4023,
        6050,
        3660,
        26573,
        6543,
        4007,
        5581,
        4009,
        6380,
        4186,
        6170,
        3627,
        6213,
        4128,
        5792,
        4172,
        5602,
        4124,
        6182,
        29212,
        3928,
        6081,
        3937,
        6236,
        3898,
        5521,
        4124,
        6640,
        4301,
        5897,
        4035,
        6424,
        3695,
        6241,
        4002,
        27301,
        6530,
        3897,
        5941,
        4203,
        6201,
        3628,
        6290,
        3898,
        5754,
        3821,
        6107,
        3804,
        6537,
        3853,
        6177,
        29337,
        3883,
        6054,
        3745,
        6912,
        3952,
        5919,
        3707,
        6978,
        3974,
        5555,
        3931,
        6875,
        3722,
        5976,
        3994,
        6624,
        3524
      ],
      "SequenceName": [
        "ep_b5#1",
        "ep_b5#1",
        "ep_b1490#2",
        "ep_b2990#3",
        "ep_b1495#4",
        "ep_b3005#5",
        "ep_b1505#6",
        "ep_b2985#7",
        "ep_b1500#8",
        "ep_b3005#9",
        "ep_b1490#10",
        "ep_b2995#11",
        "ep_b1495#12",
        "ep_b2990#13",
        "ep_b1500#14",
        "ep_b2985#15",
        "ep_b1505#16",
        "ep_b5#17",
        "ep_b3005#18",
        "ep_b1490#19",
        "ep_b3000#20",
        "ep_b1495#21",
        "ep_b3000#22",
        "ep_b1495#23",
        "ep_b3000#24",
        "ep_b1490#25",
        "ep_b2980#26",
        "ep_b1505#27",
        "ep_b2990#28",
        "ep_b1495#29",
        "ep_b3000#30",
        "ep_b1490#31",
        "ep_b3000#32",
        "ep_b5#33",
        "ep_b1505#34",
        "ep_b3000#35",
        "ep_b1490#36",
        "ep_b2980#37",
        "ep_b1495#38",
        "ep_b2995#39",
        "ep_b1500#40",
        "ep_b2995#41",
        "ep_b1505#42",
        "ep_b2990#43",
        "ep_b1495#44",
        "ep_b3000#45",
        "ep_b1495#46",
        "ep_b3000#47",
        "ep_b1485#48",
        "ep_b5#49",
        "ep_b3005#50",
        "ep_b1495#51",
        "ep_b2995#52",
        "ep_b1505#53",
        "ep_b2995#54",
        "ep_b1490#55",
        "ep_b2990#56",
        "ep_b1490#57",
        "ep_b3000#58",
        "ep_b1500#59",
        "ep_b3000#60",
        "ep_b1505#61",
        "ep_b2985#62",
        "ep_b1500#63",
        "ep_b2990#64",
        "ep_b5#65",
        "ep_b1505#66",
        "ep_b3005#67",
        "ep_b1495#68",
        "ep_b3000#69",
        "ep_b1505#70",
        "ep_b3005#71",
        "ep_b1500#72",
        "ep_b3005#73",
        "ep_b1490#74",
        "ep_b2990#75",
        "ep_b1495#76",
        "ep_b2995#77",
        "ep_b1500#78",
        "ep_b3000#79",
        "ep_b1490#80",
        "ep_b5#81",
        "ep_b2990#82",
        "ep_b1500#83",
        "ep_b2985#84",
        "ep_b1495#85",
        "ep_b2995#86",
        "ep_b1495#87",
        "ep_b2990#88",
        "ep_b1490#89",
        "ep_b2980#90",
        "ep_b1500#91",
        "ep_b2995#92",
        "ep_b1495#93",
        "ep_b3005#94",
        "ep_b1500#95",
        "ep_b2990#96",
        "ep_b1500#97",
        "ep_b3000#98"
      ],
      "TriggerTime": [
        18775,
        22005,
        25235,
        28465,
        31695,
        34925,
        38155,
        41385,
        44615,
        47845,
        51075,
        54305,
        57535,
        60765,
        63995,
        67225,
        70455,
        73685,
        76915,
        80145,
        83375,
        86605,
        89835,
        93065,
        96295,
        99525,
        102755,
        105985,
        109215,
        112445,
        115675,
        118905,
        122135,
        125365,
        128595,
        131825,
        135055,
        138285,
        141515,
        144745,
        147975,
        151205,
        154435,
        157665,
        160895,
        164125,
        167355,
        170585,
        173815,
        177045,
        180275,
        183505,
        186735,
        189965,
        193195,
        196425,
        199655,
        202885,
        206115,
        209345,
        212575,
        215805,
        219035,
        222265,
        225495,
        228725,
        231955,
        235185,
        238415,
        241645,
        244875,
        248105,
        251335,
        254565,
        257795,
        261025,
        264255,
        267485,
        270715,
        273945,
        277175,
        280405,
        283635,
        286865,
        290095,
        293325,
        296555,
        299785,
        303015,
        306245,
        309475,
        312705,
        315935,
        319165,
        322395,
        325625,
        328855,
        332085,
        335315
      ],
      "WindowCenter": [
        4086,
        4161,
        1454,
        884,
        1457,
        911,
        1439,
        905,
        1456,
        902,
        1439,
        894,
        1466,
        907,
        1468,
        918,
        1438,
        4165,
        902,
        1467,
        888,
        1437,
        895,
        1440,
        889,
        1453,
        888,
        1434,
        921,
        1425,
        915,
        1454,
        888,
        4147,
        1450,
        899,
        1429,
        901,
        1451,
        916,
        1451,
        877,
        1426,
        912,
        1422,
        899,
        1440,
        923,
        1437,
        4175,
        887,
        1451,
        889,
        1439,
        910,
        1426,
        915,
        1449,
        901,
        1441,
        899,
        1454,
        888,
        1467,
        920,
        4126,
        1438,
        901,
        1439,
        898,
        1435,
        890,
        1453,
        887,
        1422,
        905,
        1454,
        905,
        1450,
        903,
        1427,
        4200,
        898,
        1440,
        885,
        1463,
        909,
        1441,
        903,
        1453,
        901,
        1441,
        888,
        1479,
        904,
        1424,
        906,
        1451,
        884
      ],
      "WindowWidth": [
        9511,
        9658,
        3735,
        2386,
        3753,
        2445,
        3710,
        2442,
        3744,
        2432,
        3706,
        2422,
        3761,
        2450,
        3768,
        2473,
        3704,
        9643,
        2431,
        3763,
        2400,
        3701,
        2423,
        3709,
        2404,
        3735,
        2399,
        3689,
        2483,
        3677,
        2463,
        3739,
        2399,
        9634,
        3723,
        2422,
        3690,
        2427,
        3728,
        2465,
        3728,
        2379,
        3684,
        2450,
        3668,
        2422,
        3709,
        2488,
        3705,
        9662,
        2396,
        3730,
        2406,
        3708,
        2461,
        3681,
        2462,
        3723,
        2428,
        3713,
        2421,
        3741,
        2397,
        3767,
        2479,
        9568,
        3699,
        2429,
        3706,
        2418,
        3689,
        2407,
        3738,
        2396,
        3671,
        2442,
        3737,
        2444,
        3724,
        2435,
        3684,
        9706,
        2417,
        3707,
        2389,
        3750,
        2455,
        3712,
        2436,
        3735,
        2428,
        3711,
        2399,
        3790,
        2439,
        3678,
        2447,
        3730,
        2387
      ]
    },
    "slices": {}
  }
}
