{
  "AcquisitionMatrixPE": 104,
  "AcquisitionNumber": 1,
  "AcquisitionTime": "08:39:44.202500",
  "BandwidthPerPixelPhaseEncode": 16.578,
  "BaseResolution": 104,
  "BodyPartExamined": "BRAIN",
  "CoilCombinationMethod": "Sum of Squares",
  "ConsistencyInfo": "N4_VE11C_LATEST_20160120",
  "ConversionSoftware": "dcm2niix",
  "ConversionSoftwareVersion": "v1.0.20220720",
  "DerivedVendorReportedEchoSpacing": 0.000580009,
  "DeviceSerialNumber": "67026",
  "DwellTime": 2.1e-06,
  "EchoTime": 0.037,
  "EchoTrainLength": 104,
  "EffectiveEchoSpacing": 0.000580009,
  "FlipAngle": 52,
  "HeudiconvVersion": "0.11.4",
  "ImageComments": "Unaliased MB8/PE3/LB",
  "ImageOrientationPatientDICOM": [
    0.999355,
    0.011315,
    0.0340956,
    0.00226744,
    0.927342,
    -0.374208
  ],
  "ImageOrientationText": "Tra>Cor(-22.0)>Sag(2.1)",
  "ImageType": [
    "ORIGINAL",
    "PRIMARY",
    "M",
    "MB",
    "ND",
    "MOSAIC"
  ],
  "ImagingFrequency": 123.175,
  "InPlanePhaseEncodingDirectionDICOM": "COL",
  "InstitutionAddress": "13th St. 149,Charlestown,MA,US,02129",
  "InstitutionName": "Martinos Center Bay 4 Prisma",
  "InstitutionalDepartmentName": "Martinos Center",
  "MRAcquisitionType": "2D",
  "MagneticFieldStrength": 3,
  "Manufacturer": "Siemens",
  "ManufacturersModelName": "Prisma_fit",
  "MatrixCoilMode": "SENSE",
  "Modality": "MR",
  "MultibandAccelerationFactor": 8,
  "NonlinearGradientCorrection": false,
  "PartialFourier": 1,
  "PatientPosition": "HFS",
  "PercentPhaseFOV": 100,
  "PercentSampling": 100,
  "PhaseEncodingDirection": "j-",
  "PhaseEncodingSteps": 104,
  "PhaseResolution": 1,
  "PixelBandwidth": 2290,
  "ProcedureStepDescription": "INVESTIGATORS^Greve",
  "ProtocolName": "rfMRI_REST_AP",
  "PulseSequenceDetails": "%CustomerSeq%\\hcp_mbep2d_bold",
  "ReceiveCoilActiveElements": "HEA;HEP",
  "ReceiveCoilName": "Head_32",
  "ReconMatrixPE": 104,
  "RepetitionTime": 0.8,
  "SAR": 0.0688969,
  "ScanOptions": "FS\\EXT",
  "ScanningSequence": "EP",
  "SequenceName": "epfid2d1_104",
  "SequenceVariant": "SK\\SS",
  "SeriesDescription": "rfMRI_REST_AP",
  "SeriesNumber": 46,
  "ShimSetting": [
    -1208,
    -10514,
    -10199,
    345,
    158,
    31,
    -72,
    -6
  ],
  "SliceThickness": 2,
  "SliceTiming": [
    0,
    0.4325,
    0.085,
    0.52,
    0.1725,
    0.605,
    0.26,
    0.6925,
    0.345,
    0,
    0.4325,
    0.085,
    0.52,
    0.1725,
    0.605,
    0.26,
    0.6925,
    0.345,
    0,
    0.4325,
    0.085,
    0.52,
    0.1725,
    0.605,
    0.26,
    0.6925,
    0.345,
    0,
    0.4325,
    0.085,
    0.52,
    0.1725,
    0.605,
    0.26,
    0.6925,
    0.345,
    0,
    0.4325,
    0.085,
    0.52,
    0.1725,
    0.605,
    0.26,
    0.6925,
    0.345,
    0,
    0.4325,
    0.085,
    0.52,
    0.1725,
    0.605,
    0.26,
    0.6925,
    0.345,
    0,
    0.4325,
    0.085,
    0.52,
    0.1725,
    0.605,
    0.26,
    0.6925,
    0.345,
    0,
    0.4325,
    0.085,
    0.52,
    0.1725,
    0.605,
    0.26,
    0.6925,
    0.345
  ],
  "SoftwareVersions": "syngo MR E11",
  "SpacingBetweenSlices": 2,
  "StationName": "BAY4OC",
  "TaskName": "rest",
  "TotalReadoutTime": 0.0597409,
  "TxRefAmp": 228.201,
  "WipMemBlock": "c23e4f97-ef0c-4451-8d8d-6f8809ef4d7f||Sequence: ve11c/master r/5b0256d+; Dec  9 2016 09:38:51 by eja",
  "dcmmeta_affine": [
    [
      -1.9987090826034546,
      0.004534888546913862,
      0.0717049166560173,
      102.77361297607422
    ],
    [
      -0.02262997254729271,
      1.8546842336654663,
      -0.7480869889259338,
      -48.860084533691406
    ],
    [
      0.06819123774766922,
      0.748415470123291,
      1.8534358739852905,
      -101.32038116455078
    ],
    [
      0,
      0,
      0,
      1
    ]
  ],
  "dcmmeta_reorient_transform": [
    [
      0,
      -1,
      0,
      103
    ],
    [
      1,
      0,
      0,
      0
    ],
    [
      0,
      0,
      1,
      0
    ],
    [
      0,
      0,
      0,
      1
    ]
  ],
  "dcmmeta_shape": [
    104,
    104,
    72,
    600
  ],
  "dcmmeta_slice_dim": 2,
  "dcmmeta_version": 0.6,
  "time": {
    "samples": {
      "AcquisitionNumber": [
        1,
        2,
        3,
        4,
        5,
        6,
        7,
        8,
        9,
        10,
        11,
        12,
        13,
        14,
        15,
        16,
        17,
        18,
        19,
        20,
        21,
        22,
        23,
        24,
        25,
        26,
        27,
        28,
        29,
        30,
        31,
        32,
        33,
        34,
        35,
        36,
        37,
        38,
        39,
        40,
        41,
        42,
        43,
        44,
        45,
        46,
        47,
        48,
        49,
        50,
        51,
        52,
        53,
        54,
        55,
        56,
        57,
        58,
        59,
        60,
        61,
        62,
        63,
        64,
        65,
        66,
        67,
        68,
        69,
        70,
        71,
        72,
        73,
        74,
        75,
        76,
        77,
        78,
        79,
        80,
        81,
        82,
        83,
        84,
        85,
        86,
        87,
        88,
        89,
        90,
        91,
        92,
        93,
        94,
        95,
        96,
        97,
        98,
        99,
        100,
        101,
        102,
        103,
        104,
        105,
        106,
        107,
        108,
        109,
        110,
        111,
        112,
        113,
        114,
        115,
        116,
        117,
        118,
        119,
        120,
        121,
        122,
        123,
        124,
        125,
        126,
        127,
        128,
        129,
        130,
        131,
        132,
        133,
        134,
        135,
        136,
        137,
        138,
        139,
        140,
        141,
        142,
        143,
        144,
        145,
        146,
        147,
        148,
        149,
        150,
        151,
        152,
        153,
        154,
        155,
        156,
        157,
        158,
        159,
        160,
        161,
        162,
        163,
        164,
        165,
        166,
        167,
        168,
        169,
        170,
        171,
        172,
        173,
        174,
        175,
        176,
        177,
        178,
        179,
        180,
        181,
        182,
        183,
        184,
        185,
        186,
        187,
        188,
        189,
        190,
        191,
        192,
        193,
        194,
        195,
        196,
        197,
        198,
        199,
        200,
        201,
        202,
        203,
        204,
        205,
        206,
        207,
        208,
        209,
        210,
        211,
        212,
        213,
        214,
        215,
        216,
        217,
        218,
        219,
        220,
        221,
        222,
        223,
        224,
        225,
        226,
        227,
        228,
        229,
        230,
        231,
        232,
        233,
        234,
        235,
        236,
        237,
        238,
        239,
        240,
        241,
        242,
        243,
        244,
        245,
        246,
        247,
        248,
        249,
        250,
        251,
        252,
        253,
        254,
        255,
        256,
        257,
        258,
        259,
        260,
        261,
        262,
        263,
        264,
        265,
        266,
        267,
        268,
        269,
        270,
        271,
        272,
        273,
        274,
        275,
        276,
        277,
        278,
        279,
        280,
        281,
        282,
        283,
        284,
        285,
        286,
        287,
        288,
        289,
        290,
        291,
        292,
        293,
        294,
        295,
        296,
        297,
        298,
        299,
        300,
        301,
        302,
        303,
        304,
        305,
        306,
        307,
        308,
        309,
        310,
        311,
        312,
        313,
        314,
        315,
        316,
        317,
        318,
        319,
        320,
        321,
        322,
        323,
        324,
        325,
        326,
        327,
        328,
        329,
        330,
        331,
        332,
        333,
        334,
        335,
        336,
        337,
        338,
        339,
        340,
        341,
        342,
        343,
        344,
        345,
        346,
        347,
        348,
        349,
        350,
        351,
        352,
        353,
        354,
        355,
        356,
        357,
        358,
        359,
        360,
        361,
        362,
        363,
        364,
        365,
        366,
        367,
        368,
        369,
        370,
        371,
        372,
        373,
        374,
        375,
        376,
        377,
        378,
        379,
        380,
        381,
        382,
        383,
        384,
        385,
        386,
        387,
        388,
        389,
        390,
        391,
        392,
        393,
        394,
        395,
        396,
        397,
        398,
        399,
        400,
        401,
        402,
        403,
        404,
        405,
        406,
        407,
        408,
        409,
        410,
        411,
        412,
        413,
        414,
        415,
        416,
        417,
        418,
        419,
        420,
        421,
        422,
        423,
        424,
        425,
        426,
        427,
        428,
        429,
        430,
        431,
        432,
        433,
        434,
        435,
        436,
        437,
        438,
        439,
        440,
        441,
        442,
        443,
        444,
        445,
        446,
        447,
        448,
        449,
        450,
        451,
        452,
        453,
        454,
        455,
        456,
        457,
        458,
        459,
        460,
        461,
        462,
        463,
        464,
        465,
        466,
        467,
        468,
        469,
        470,
        471,
        472,
        473,
        474,
        475,
        476,
        477,
        478,
        479,
        480,
        481,
        482,
        483,
        484,
        485,
        486,
        487,
        488,
        489,
        490,
        491,
        492,
        493,
        494,
        495,
        496,
        497,
        498,
        499,
        500,
        501,
        502,
        503,
        504,
        505,
        506,
        507,
        508,
        509,
        510,
        511,
        512,
        513,
        514,
        515,
        516,
        517,
        518,
        519,
        520,
        521,
        522,
        523,
        524,
        525,
        526,
        527,
        528,
        529,
        530,
        531,
        532,
        533,
        534,
        535,
        536,
        537,
        538,
        539,
        540,
        541,
        542,
        543,
        544,
        545,
        546,
        547,
        548,
        549,
        550,
        551,
        552,
        553,
        554,
        555,
        556,
        557,
        558,
        559,
        560,
        561,
        562,
        563,
        564,
        565,
        566,
        567,
        568,
        569,
        570,
        571,
        572,
        573,
        574,
        575,
        576,
        577,
        578,
        579,
        580,
        581,
        582,
        583,
        584,
        585,
        586,
        587,
        588,
        589,
        590,
        591,
        592,
        593,
        594,
        595,
        596,
        597,
        598,
        599,
        600
      ],
      "AcquisitionTime": [
        "083944.202500",
        "083945.002500",
        "083945.802500",
        "083946.602500",
        "083947.402500",
        "083948.202500",
        "083949.002500",
        "083949.802500",
        "083950.602500",
        "083951.402500",
        "083952.202500",
        "083953.002500",
        "083953.802500",
        "083954.602500",
        "083955.402500",
        "083956.202500",
        "083957.002500",
        "083957.802500",
        "083958.602500",
        "083959.402500",
        "084000.202500",
        "084001.002500",
        "084001.802500",
        "084002.602500",
        "084003.402500",
        "084004.202500",
        "084005.002500",
        "084005.802500",
        "084006.602500",
        "084007.402500",
        "084008.202500",
        "084009.002500",
        "084009.802500",
        "084010.602500",
        "084011.402500",
        "084012.202500",
        "084013.002500",
        "084013.802500",
        "084014.602500",
        "084015.402500",
        "084016.202500",
        "084017.002500",
        "084017.802500",
        "084018.602500",
        "084019.402500",
        "084020.202500",
        "084021.002500",
        "084021.802500",
        "084022.602500",
        "084023.402500",
        "084024.202500",
        "084025.002500",
        "084025.802500",
        "084026.602500",
        "084027.402500",
        "084028.202500",
        "084029.002500",
        "084029.802500",
        "084030.602500",
        "084031.402500",
        "084032.202500",
        "084033.002500",
        "084033.802500",
        "084034.602500",
        "084035.402500",
        "084036.202500",
        "084037.002500",
        "084037.802500",
        "084038.602500",
        "084039.402500",
        "084040.202500",
        "084041.002500",
        "084041.802500",
        "084042.602500",
        "084043.402500",
        "084044.202500",
        "084045.002500",
        "084045.802500",
        "084046.602500",
        "084047.402500",
        "084048.202500",
        "084049.002500",
        "084049.802500",
        "084050.602500",
        "084051.402500",
        "084052.202500",
        "084053.002500",
        "084053.802500",
        "084054.602500",
        "084055.402500",
        "084056.202500",
        "084057.002500",
        "084057.802500",
        "084058.602500",
        "084059.402500",
        "084100.202500",
        "084101.002500",
        "084101.802500",
        "084102.602500",
        "084103.402500",
        "084104.202500",
        "084105.002500",
        "084105.802500",
        "084106.602500",
        "084107.402500",
        "084108.202500",
        "084109.002500",
        "084109.802500",
        "084110.602500",
        "084111.402500",
        "084112.202500",
        "084113.002500",
        "084113.802500",
        "084114.602500",
        "084115.402500",
        "084116.202500",
        "084117.002500",
        "084117.802500",
        "084118.602500",
        "084119.402500",
        "084120.202500",
        "084121.002500",
        "084121.802500",
        "084122.602500",
        "084123.402500",
        "084124.202500",
        "084125.002500",
        "084125.802500",
        "084126.602500",
        "084127.402500",
        "084128.202500",
        "084129.002500",
        "084129.802500",
        "084130.602500",
        "084131.402500",
        "084132.202500",
        "084133.002500",
        "084133.802500",
        "084134.602500",
        "084135.402500",
        "084136.202500",
        "084137.002500",
        "084137.802500",
        "084138.602500",
        "084139.402500",
        "084140.202500",
        "084141.002500",
        "084141.802500",
        "084142.602500",
        "084143.402500",
        "084144.202500",
        "084145.002500",
        "084145.802500",
        "084146.602500",
        "084147.402500",
        "084148.202500",
        "084149.002500",
        "084149.802500",
        "084150.602500",
        "084151.402500",
        "084152.202500",
        "084153.002500",
        "084153.802500",
        "084154.602500",
        "084155.402500",
        "084156.202500",
        "084157.002500",
        "084157.802500",
        "084158.602500",
        "084159.402500",
        "084200.202500",
        "084201.002500",
        "084201.802500",
        "084202.602500",
        "084203.402500",
        "084204.202500",
        "084205.002500",
        "084205.802500",
        "084206.602500",
        "084207.402500",
        "084208.202500",
        "084209.002500",
        "084209.802500",
        "084210.602500",
        "084211.402500",
        "084212.202500",
        "084213.002500",
        "084213.802500",
        "084214.602500",
        "084215.402500",
        "084216.202500",
        "084217.002500",
        "084217.802500",
        "084218.602500",
        "084219.402500",
        "084220.202500",
        "084221.002500",
        "084221.802500",
        "084222.602500",
        "084223.402500",
        "084224.202500",
        "084225.002500",
        "084225.802500",
        "084226.602500",
        "084227.402500",
        "084228.202500",
        "084229.002500",
        "084229.802500",
        "084230.602500",
        "084231.402500",
        "084232.202500",
        "084233.002500",
        "084233.802500",
        "084234.602500",
        "084235.402500",
        "084236.202500",
        "084237.002500",
        "084237.802500",
        "084238.602500",
        "084239.402500",
        "084240.202500",
        "084241.002500",
        "084241.802500",
        "084242.602500",
        "084243.402500",
        "084244.202500",
        "084245.002500",
        "084245.802500",
        "084246.602500",
        "084247.402500",
        "084248.202500",
        "084249.002500",
        "084249.802500",
        "084250.602500",
        "084251.402500",
        "084252.202500",
        "084253.002500",
        "084253.802500",
        "084254.602500",
        "084255.402500",
        "084256.202500",
        "084257.002500",
        "084257.802500",
        "084258.602500",
        "084259.402500",
        "084300.202500",
        "084301.002500",
        "084301.802500",
        "084302.602500",
        "084303.402500",
        "084304.202500",
        "084305.002500",
        "084305.802500",
        "084306.602500",
        "084307.402500",
        "084308.202500",
        "084309.002500",
        "084309.802500",
        "084310.602500",
        "084311.402500",
        "084312.202500",
        "084313.002500",
        "084313.802500",
        "084314.602500",
        "084315.402500",
        "084316.202500",
        "084317.002500",
        "084317.802500",
        "084318.602500",
        "084319.402500",
        "084320.202500",
        "084321.002500",
        "084321.802500",
        "084322.602500",
        "084323.402500",
        "084324.202500",
        "084325.002500",
        "084325.802500",
        "084326.602500",
        "084327.402500",
        "084328.202500",
        "084329.002500",
        "084329.802500",
        "084330.602500",
        "084331.402500",
        "084332.202500",
        "084333.002500",
        "084333.802500",
        "084334.602500",
        "084335.402500",
        "084336.202500",
        "084337.002500",
        "084337.802500",
        "084338.602500",
        "084339.402500",
        "084340.202500",
        "084341.002500",
        "084341.802500",
        "084342.602500",
        "084343.402500",
        "084344.202500",
        "084345.002500",
        "084345.802500",
        "084346.602500",
        "084347.402500",
        "084348.202500",
        "084349.002500",
        "084349.802500",
        "084350.602500",
        "084351.402500",
        "084352.202500",
        "084353.002500",
        "084353.802500",
        "084354.602500",
        "084355.402500",
        "084356.202500",
        "084357.002500",
        "084357.802500",
        "084358.602500",
        "084359.402500",
        "084400.202500",
        "084401.002500",
        "084401.802500",
        "084402.602500",
        "084403.402500",
        "084404.202500",
        "084405.002500",
        "084405.802500",
        "084406.602500",
        "084407.402500",
        "084408.202500",
        "084409.002500",
        "084409.802500",
        "084410.602500",
        "084411.402500",
        "084412.202500",
        "084413.002500",
        "084413.802500",
        "084414.602500",
        "084415.402500",
        "084416.202500",
        "084417.002500",
        "084417.802500",
        "084418.602500",
        "084419.402500",
        "084420.202500",
        "084421.002500",
        "084421.802500",
        "084422.602500",
        "084423.402500",
        "084424.202500",
        "084425.002500",
        "084425.802500",
        "084426.602500",
        "084427.402500",
        "084428.202500",
        "084429.002500",
        "084429.802500",
        "084430.602500",
        "084431.402500",
        "084432.202500",
        "084433.002500",
        "084433.802500",
        "084434.602500",
        "084435.402500",
        "084436.202500",
        "084437.002500",
        "084437.802500",
        "084438.602500",
        "084439.402500",
        "084440.202500",
        "084441.002500",
        "084441.802500",
        "084442.602500",
        "084443.402500",
        "084444.202500",
        "084445.002500",
        "084445.802500",
        "084446.602500",
        "084447.402500",
        "084448.202500",
        "084449.002500",
        "084449.802500",
        "084450.602500",
        "084451.402500",
        "084452.202500",
        "084453.002500",
        "084453.802500",
        "084454.602500",
        "084455.402500",
        "084456.202500",
        "084457.002500",
        "084457.802500",
        "084458.602500",
        "084459.402500",
        "084500.202500",
        "084501.002500",
        "084501.802500",
        "084502.602500",
        "084503.402500",
        "084504.202500",
        "084505.002500",
        "084505.802500",
        "084506.602500",
        "084507.402500",
        "084508.202500",
        "084509.002500",
        "084509.802500",
        "084510.602500",
        "084511.402500",
        "084512.202500",
        "084513.002500",
        "084513.802500",
        "084514.602500",
        "084515.402500",
        "084516.202500",
        "084517.002500",
        "084517.802500",
        "084518.602500",
        "084519.402500",
        "084520.202500",
        "084521.002500",
        "084521.802500",
        "084522.602500",
        "084523.402500",
        "084524.202500",
        "084525.002500",
        "084525.802500",
        "084526.602500",
        "084527.402500",
        "084528.202500",
        "084529.002500",
        "084529.802500",
        "084530.602500",
        "084531.402500",
        "084532.202500",
        "084533.002500",
        "084533.802500",
        "084534.602500",
        "084535.402500",
        "084536.202500",
        "084537.002500",
        "084537.802500",
        "084538.602500",
        "084539.402500",
        "084540.202500",
        "084541.002500",
        "084541.802500",
        "084542.602500",
        "084543.402500",
        "084544.202500",
        "084545.002500",
        "084545.802500",
        "084546.602500",
        "084547.402500",
        "084548.202500",
        "084549.002500",
        "084549.802500",
        "084550.602500",
        "084551.402500",
        "084552.202500",
        "084553.002500",
        "084553.802500",
        "084554.602500",
        "084555.402500",
        "084556.202500",
        "084557.002500",
        "084557.802500",
        "084558.602500",
        "084559.402500",
        "084600.202500",
        "084601.002500",
        "084601.802500",
        "084602.602500",
        "084603.402500",
        "084604.202500",
        "084605.002500",
        "084605.802500",
        "084606.602500",
        "084607.402500",
        "084608.202500",
        "084609.002500",
        "084609.802500",
        "084610.602500",
        "084611.402500",
        "084612.202500",
        "084613.002500",
        "084613.802500",
        "084614.602500",
        "084615.402500",
        "084616.202500",
        "084617.002500",
        "084617.802500",
        "084618.602500",
        "084619.402500",
        "084620.202500",
        "084621.002500",
        "084621.802500",
        "084622.602500",
        "084623.402500",
        "084624.202500",
        "084625.002500",
        "084625.802500",
        "084626.602500",
        "084627.402500",
        "084628.202500",
        "084629.002500",
        "084629.802500",
        "084630.602500",
        "084631.402500",
        "084632.202500",
        "084633.002500",
        "084633.802500",
        "084634.602500",
        "084635.402500",
        "084636.202500",
        "084637.002500",
        "084637.802500",
        "084638.602500",
        "084639.402500",
        "084640.202500",
        "084641.002500",
        "084641.802500",
        "084642.602500",
        "084643.402500",
        "084644.202500",
        "084645.002500",
        "084645.802500",
        "084646.602500",
        "084647.402500",
        "084648.202500",
        "084649.002500",
        "084649.802500",
        "084650.602500",
        "084651.402500",
        "084652.202500",
        "084653.002500",
        "084653.802500",
        "084654.602500",
        "084655.402500",
        "084656.202500",
        "084657.002500",
        "084657.802500",
        "084658.602500",
        "084659.402500",
        "084700.202500",
        "084701.002500",
        "084701.802500",
        "084702.602500",
        "084703.402500",
        "084704.202500",
        "084705.002500",
        "084705.802500",
        "084706.602500",
        "084707.402500",
        "084708.202500",
        "084709.002500",
        "084709.802500",
        "084710.602500",
        "084711.402500",
        "084712.202500",
        "084713.002500",
        "084713.802500",
        "084714.602500",
        "084715.402500",
        "084716.202500",
        "084717.002500",
        "084717.802500",
        "084718.602500",
        "084719.402500",
        "084720.202500",
        "084721.002500",
        "084721.802500",
        "084722.602500",
        "084723.402500",
        "084724.202500",
        "084725.002500",
        "084725.802500",
        "084726.602500",
        "084727.402500",
        "084728.202500",
        "084729.002500",
        "084729.802500",
        "084730.602500",
        "084731.402500",
        "084732.202500",
        "084733.002500",
        "084733.802500",
        "084734.602500",
        "084735.402500",
        "084736.202500",
        "084737.002500",
        "084737.802500",
        "084738.602500",
        "084739.402500",
        "084740.202500",
        "084741.002500",
        "084741.802500",
        "084742.602500",
        "084743.402500"
      ],
      "ContentTime": [
        "084035.695000",
        "084035.699000",
        "084035.717000",
        "084035.720000",
        "084035.723000",
        "084035.728000",
        "084035.730000",
        "084035.733000",
        "084035.736000",
        "084035.739000",
        "084035.742000",
        "084035.753000",
        "084035.755000",
        "084035.759000",
        "084035.762000",
        "084035.765000",
        "084035.768000",
        "084035.771000",
        "084035.774000",
        "084035.776000",
        "084035.779000",
        "084035.782000",
        "084035.785000",
        "084035.788000",
        "084035.791000",
        "084035.794000",
        "084035.796000",
        "084035.799000",
        "084035.802000",
        "084035.805000",
        "084035.808000",
        "084035.811000",
        "084035.814000",
        "084035.817000",
        "084035.820000",
        "084035.822000",
        "084035.825000",
        "084035.828000",
        "084035.831000",
        "084035.834000",
        "084035.846000",
        "084035.849000",
        "084035.852000",
        "084035.855000",
        "084035.858000",
        "084035.861000",
        "084035.863000",
        "084035.866000",
        "084035.869000",
        "084035.872000",
        "084035.875000",
        "084035.878000",
        "084035.881000",
        "084035.883000",
        "084035.886000",
        "084035.889000",
        "084055.654000",
        "084055.657000",
        "084055.660000",
        "084055.663000",
        "084055.666000",
        "084055.669000",
        "084055.672000",
        "084055.675000",
        "084055.677000",
        "084055.680000",
        "084055.683000",
        "084055.686000",
        "084055.689000",
        "084055.692000",
        "084055.695000",
        "084055.698000",
        "084055.700000",
        "084055.703000",
        "084055.706000",
        "084055.709000",
        "084055.712000",
        "084055.715000",
        "084055.718000",
        "084055.721000",
        "084055.724000",
        "084055.727000",
        "084055.730000",
        "084055.732000",
        "084055.735000",
        "084055.738000",
        "084055.741000",
        "084055.744000",
        "084115.653000",
        "084115.656000",
        "084115.659000",
        "084115.662000",
        "084115.665000",
        "084115.668000",
        "084115.671000",
        "084115.673000",
        "084115.676000",
        "084115.679000",
        "084115.682000",
        "084115.685000",
        "084115.688000",
        "084115.691000",
        "084115.694000",
        "084115.697000",
        "084115.700000",
        "084115.703000",
        "084115.706000",
        "084115.709000",
        "084115.720000",
        "084115.722000",
        "084115.725000",
        "084115.728000",
        "084115.731000",
        "084135.653000",
        "084135.656000",
        "084135.659000",
        "084135.662000",
        "084135.665000",
        "084135.669000",
        "084135.671000",
        "084135.674000",
        "084135.677000",
