{
  "AcquisitionMatrixPE": 140,
  "AcquisitionNumber": 1,
  "AcquisitionTime": "16:46:49.055000",
  "BandwidthPerPixelPhaseEncode": 10.352,
  "BaseResolution": 140,
  "BodyPartExamined": "BRAIN",
  "CoilCombinationMethod": "Sum of Squares",
  "ConsistencyInfo": "N4_VE11C_LATEST_20160120",
  "ConversionSoftware": "dcm2niix",
  "ConversionSoftwareVersion": "v1.0.20220720",
  "DerivedVendorReportedEchoSpacing": 0.000689998,
  "DeviceSerialNumber": "67026",
  "DiffusionScheme": "Monopolar",
  "DwellTime": 2.1e-06,
  "EchoTime": 0.0892,
  "EchoTrainLength": 105,
  "EffectiveEchoSpacing": 0.000689998,
  "FlipAngle": 78,
  "HeudiconvVersion": "0.11.4",
  "ImageComments": "Unaliased MB4/PE3/LB SENSE1",
  "ImageOrientationPatientDICOM": [
    0.997695,
    -0.0431025,
    -0.0524076,
    0.032574,
    0.981758,
    -0.187326
  ],
  "ImageOrientationText": "Tra>Cor(-10.7)>Sag(-3.4)",
  "ImageType": [
    "ORIGINAL",
    "PRIMARY",
    "DIFFUSION",
    "NONE",
    "MB",
    "ND",
    "MOSAIC"
  ],
  "ImagingFrequency": 123.191,
  "InPlanePhaseEncodingDirectionDICOM": "COL",
  "InstitutionAddress": "13th St. 149,Charlestown,MA,US,02129",
  "InstitutionName": "MGH PrismaFit-Bay4",
  "InstitutionalDepartmentName": "Martinos Center",
  "MRAcquisitionType": "2D",
  "MagneticFieldStrength": 3,
  "Manufacturer": "Siemens",
  "ManufacturersModelName": "Prisma_fit",
  "MatrixCoilMode": "SENSE",
  "Modality": "MR",
  "MultibandAccelerationFactor": 4,
  "NonlinearGradientCorrection": false,
  "PartialFourier": 0.75,
  "PatientPosition": "HFS",
  "PercentPhaseFOV": 100,
  "PercentSampling": 100,
  "PhaseEncodingDirection": "j-",
  "PhaseEncodingSteps": 105,
  "PhaseResolution": 1,
  "PixelBandwidth": 1700,
  "ProcedureStepDescription": "INVESTIGATORS^Greve",
  "ProtocolName": "dMRI_dir98_AP",
  "PulseSequenceDetails": "%CustomerSeq%\\hcp_mbep2d_diff",
  "ReceiveCoilActiveElements": "HEA;HEP",
  "ReceiveCoilName": "Head_32",
  "ReconMatrixPE": 140,
  "RepetitionTime": 3.23,
  "SAR": 0.171834,
  "ScanOptions": "PFP\\EXT",
  "ScanningSequence": "EP",
  "SequenceName": "ep_b5#1",
  "SequenceVariant": "SK\\SS",
  "SeriesDescription": "dMRI_dir98_AP",
  "SeriesNumber": 43,
  "ShimSetting": [
    -1222,
    -10542,
    -10122,
    664,
    141,
    98,
    -4,
    -22
  ],
  "SliceThickness": 1.5,
  "SliceTiming": [
    0,
    1.675,
    0.14,
    1.815,
    0.28,
    1.955,
    0.42,
    2.095,
    0.56,
    2.2325,
    0.6975,
    2.3725,
    0.8375,
    2.5125,
    0.9775,
    2.6525,
    1.1175,
    2.7925,
    1.2575,
    2.9325,
    1.3975,
    3.07,
    1.535,
    0,
    1.675,
    0.14,
    1.815,
    0.28,
    1.955,
    0.42,
    2.095,
    0.56,
    2.2325,
    0.6975,
    2.3725,
    0.8375,
    2.5125,
    0.9775,
    2.6525,
    1.1175,
    2.7925,
    1.2575,
    2.9325,
    1.3975,
    3.07,
    1.535,
    0,
    1.675,
    0.14,
    1.815,
    0.28,
    1.955,
    0.42,
    2.095,
    0.56,
    2.2325,
    0.6975,
    2.3725,
    0.8375,
    2.5125,
    0.9775,
    2.6525,
    1.1175,
    2.7925,
    1.2575,
    2.9325,
    1.3975,
    3.07,
    1.535,
    0,
    1.675,
    0.14,
    1.815,
    0.28,
    1.955,
    0.42,
    2.095,
    0.56,
    2.2325,
    0.6975,
    2.3725,
    0.8375,
    2.5125,
    0.9775,
    2.6525,
    1.1175,
    2.7925,
    1.2575,
    2.9325,
    1.3975,
    3.07,
    1.535
  ],
  "SoftwareVersions": "syngo MR E11",
  "SpacingBetweenSlices": 1.5,
  "StationName": "BAY4OC",
  "TotalReadoutTime": 0.0959097,
  "TxRefAmp": 219.223,
  "WipMemBlock": "eb0313cc-2d22-4d93-9649-242e09c85a3f||Sequence: ve11c/master r/5b0256d+; Dec  9 2016 09:48:43 by eja",
  "dcmmeta_affine": [
    [
      -1.4965426921844482,
      0.04886095970869064,
      -0.08928858488798141,
      103.74671173095703
    ],
    [
      0.06465372443199158,
      1.472636342048645,
      -0.2777806222438812,
      -74.99752044677734
    ],
    [
      -0.0786113291978836,
      0.2809889316558838,
      1.4713481664657593,
      -53.22003936767578
    ],
    [
      0,
      0,
      0,
      1
    ]
  ],
  "dcmmeta_reorient_transform": [
    [
      0,
      -1,
      0,
      139
    ],
    [
      1,
      0,
      0,
      0
    ],
    [
      0,
      0,
      1,
      0
    ],
    [
      0,
      0,
      0,
      1
    ]
  ],
  "dcmmeta_shape": [
    140,
    140,
    92,
    99
  ],
  "dcmmeta_slice_dim": 2,
  "dcmmeta_version": 0.6,
  "time": {
    "samples": {
      "AcquisitionNumber": [
        1,
        2,
        3,
        4,
        5,
        6,
        7,
        8,
        9,
        10,
        11,
        12,
        13,
        14,
        15,
        16,
        17,
        18,
        19,
        20,
        21,
        22,
        23,
        24,
        25,
        26,
        27,
        28,
        29,
        30,
        31,
        32,
        33,
        34,
        35,
        36,
        37,
        38,
        39,
        40,
        41,
        42,
        43,
        44,
        45,
        46,
        47,
        48,
        49,
        50,
        51,
        52,
        53,
        54,
        55,
        56,
        57,
        58,
        59,
        60,
        61,
        62,
        63,
        64,
        65,
        66,
        67,
        68,
        69,
        70,
        71,
        72,
        73,
        74,
        75,
        76,
        77,
        78,
        79,
        80,
        81,
        82,
        83,
        84,
        85,
        86,
        87,
        88,
        89,
        90,
        91,
        92,
        93,
        94,
        95,
        96,
        97,
        98,
        99
      ],
      "AcquisitionTime": [
        "164649.055000",
        "164652.285000",
        "164655.515000",
        "164658.745000",
        "164701.975000",
        "164705.205000",
        "164708.435000",
        "164711.665000",
        "164714.895000",
        "164718.125000",
        "164721.355000",
        "164724.585000",
        "164727.815000",
        "164731.045000",
        "164734.275000",
        "164737.505000",
        "164740.735000",
        "164743.965000",
        "164747.195000",
        "164750.425000",
        "164753.655000",
        "164756.885000",
        "164800.115000",
        "164803.345000",
        "164806.575000",
        "164809.805000",
        "164813.035000",
        "164816.265000",
        "164819.495000",
        "164822.725000",
        "164825.955000",
        "164829.185000",
        "164832.415000",
        "164835.645000",
        "164838.875000",
        "164842.105000",
        "164845.335000",
        "164848.565000",
        "164851.795000",
        "164855.025000",
        "164858.255000",
        "164901.485000",
        "164904.715000",
        "164907.945000",
        "164911.175000",
        "164914.405000",
        "164917.635000",
        "164920.865000",
        "164924.095000",
        "164927.325000",
        "164930.555000",
        "164933.785000",
        "164937.015000",
        "164940.245000",
        "164943.475000",
        "164946.705000",
        "164949.935000",
        "164953.165000",
        "164956.395000",
        "164959.625000",
        "165002.855000",
        "165006.085000",
        "165009.315000",
        "165012.545000",
        "165015.775000",
        "165019.005000",
        "165022.235000",
        "165025.465000",
        "165028.695000",
        "165031.925000",
        "165035.155000",
        "165038.385000",
        "165041.615000",
        "165044.845000",
        "165048.075000",
        "165051.305000",
        "165054.535000",
        "165057.765000",
        "165100.995000",
        "165104.225000",
        "165107.455000",
        "165110.685000",
        "165113.915000",
        "165117.145000",
        "165120.375000",
        "165123.605000",
        "165126.835000",
        "165130.065000",
        "165133.295000",
        "165136.525000",
        "165139.755000",
        "165142.985000",
        "165146.215000",
        "165149.445000",
        "165152.675000",
        "165155.905000",
        "165159.135000",
        "165202.365000",
        "165205.595000"
      ],
      "ContentTime": [
        "164841.238000",
        "164841.242000",
        "164841.246000",
        "164841.249000",
        "164841.253000",
        "164841.256000",
        "164921.192000",
        "164921.196000",
        "164921.199000",
        "164921.203000",
        "164921.207000",
        "164921.211000",
        "164921.214000",
        "164921.217000",
        "164921.221000",
        "164921.224000",
        "164921.227000",
        "164921.231000",
        "164921.234000",
        "164921.241000",
        "164921.245000",
        "164921.248000",
        "164921.251000",
        "164921.255000",
        "164921.259000",
        "164921.262000",
        "164921.266000",
        "164921.269000",
        "164921.272000",
        "164921.276000",
        "164921.280000",
        "164921.283000",
        "164921.286000",
        "164921.290000",
        "164921.293000",
        "164921.297000",
        "164921.300000",
        "164921.304000",
        "164921.307000",
        "164921.311000",
        "164921.315000",
        "164921.318000",
        "165021.193000",
        "165021.197000",
        "165021.200000",
        "165021.204000",
        "165021.207000",
        "165021.211000",
        "165021.214000",
        "165021.217000",
        "165021.220000",
        "165021.224000",
        "165021.227000",
        "165021.230000",
        "165021.234000",
        "165021.237000",
        "165021.240000",
        "165021.244000",
        "165021.247000",
        "165021.250000",
        "165021.253000",
        "165021.263000",
        "165021.266000",
        "165021.269000",
        "165021.273000",
        "165141.192000",
        "165141.196000",
        "165141.199000",
        "165141.203000",
        "165141.206000",
        "165141.209000",
        "165141.217000",
        "165141.221000",
        "165141.224000",
        "165141.227000",
        "165141.235000",
        "165141.238000",
        "165141.242000",
        "165141.245000",
        "165141.249000",
        "165141.252000",
        "165141.255000",
        "165141.259000",
        "165141.263000",
        "165141.266000",
        "165141.269000",
        "165141.273000",
        "165141.276000",
        "165141.279000",
        "165141.282000",
        "165209.927000",
        "165209.931000",
        "165209.934000",
        "165209.938000",
        "165209.941000",
        "165209.945000",
        "165209.948000",
        "165209.952000",
        "165209.955000"
      ],
      "InstanceCreationTime": [
        "164841.238000",
        "164841.242000",
        "164841.246000",
        "164841.249000",
        "164841.253000",
        "164841.256000",
        "164921.192000",
        "164921.196000",
        "164921.199000",
        "164921.203000",
        "164921.207000",
        "164921.211000",
        "164921.214000",
        "164921.217000",
        "164921.221000",
        "164921.224000",
        "164921.227000",
        "164921.231000",
        "164921.234000",
        "164921.241000",
        "164921.245000",
        "164921.248000",
        "164921.251000",
        "164921.255000",
        "164921.259000",
        "164921.262000",
        "164921.266000",
        "164921.269000",
        "164921.272000",
        "164921.276000",
        "164921.280000",
        "164921.283000",
        "164921.286000",
        "164921.290000",
        "164921.293000",
        "164921.297000",
        "164921.300000",
        "164921.304000",
        "164921.307000",
        "164921.311000",
        "164921.315000",
        "164921.318000",
        "165021.193000",
        "165021.197000",
        "165021.200000",
        "165021.204000",
        "165021.207000",
        "165021.211000",
        "165021.214000",
        "165021.217000",
        "165021.220000",
        "165021.224000",
        "165021.227000",
        "165021.230000",
        "165021.234000",
        "165021.237000",
        "165021.240000",
        "165021.244000",
        "165021.247000",
        "165021.250000",
        "165021.253000",
        "165021.263000",
        "165021.266000",
        "165021.269000",
        "165021.273000",
        "165141.192000",
        "165141.196000",
        "165141.199000",
        "165141.203000",
        "165141.206000",
        "165141.209000",
        "165141.217000",
        "165141.221000",
        "165141.224000",
        "165141.227000",
        "165141.235000",
        "165141.238000",
        "165141.242000",
        "165141.245000",
        "165141.249000",
        "165141.252000",
        "165141.255000",
        "165141.259000",
        "165141.263000",
        "165141.266000",
        "165141.269000",
        "165141.273000",
        "165141.276000",
        "165141.279000",
        "165141.282000",
        "165209.927000",
        "165209.931000",
        "165209.934000",
        "165209.938000",
        "165209.941000",
        "165209.945000",
        "165209.948000",
        "165209.952000",
        "165209.955000"
      ],
      "InstanceNumber": [
        1,
        2,
        3,
        4,
        5,
        6,
        7,
        8,
        9,
        10,
        11,
        12,
        13,
        14,
        15,
        16,
        17,
        18,
        19,
        20,
        21,
        22,
        23,
        24,
        25,
        26,
        27,
        28,
        29,
        30,
        31,
        32,
        33,
        34,
        35,
        36,
        37,
        38,
        39,
        40,
        41,
        42,
        43,
        44,
        45,
        46,
        47,
        48,
        49,
        50,
        51,
        52,
        53,
        54,
        55,
        56,
        57,
        58,
        59,
        60,
        61,
        62,
        63,
        64,
        65,
        66,
        67,
        68,
        69,
        70,
        71,
        72,
        73,
        74,
        75,
        76,
        77,
        78,
        79,
        80,
        81,
        82,
        83,
        84,
        85,
        86,
        87,
        88,
        89,
        90,
        91,
        92,
        93,
        94,
        95,
        96,
        97,
        98,
        99
      ],
      "LargestImagePixelValue": [
        33136,
        31408,
        6415,
        2941,
        6591,
        2764,
        6524,
        2419,
        6406,
        2813,
        5978,
        2931,
        6639,
        3101,
        6617,
        2978,
        7275,
        34704,
        3183,
        6747,
        2762,
        6482,
        2886,
        6232,
        2828,
        6298,
        3033,
        6724,
        2618,
        6304,
        2769,
        7021,
        2926,
        33831,
        6778,
        3234,
        6350,
        2631,
        6289,
        2946,
        6584,
        2449,
        7140,
        3101,
        6712,
        2659,
        5965,
        3014,
        7400,
        33083,
        3004,
        6634,
        2894,
        6829,
        2589,
        6642,
        2864,
        7150,
        2808,
        6339,
        3068,
        6474,
        2889,
        7034,
        2817,
        31587,
        6380,
        3127,
        6793,
        2820,
        6883,
        3163,
        6427,
        2967,
        7107,
        2547,
        6969,
        2879,
        6465,
        2690,
        6751,
        33441,
        2792,
        6380,
        2827,
        6275,
        2532,
        6020,
        2521,
        6852,
        2850,
        6363,
        2916,
        7085,
        3195,
        6468,
        2786,
        6583,
        2975
      ],
      "SequenceName": [
        "ep_b5#1",
        "ep_b5#1",
        "ep_b1490#2",
        "ep_b2990#3",
        "ep_b1495#4",
        "ep_b3005#5",
        "ep_b1500#6",
        "ep_b2985#7",
        "ep_b1495#8",
        "ep_b3005#9",
        "ep_b1490#10",
        "ep_b2995#11",
        "ep_b1490#12",
        "ep_b2985#13",
        "ep_b1500#14",
        "ep_b2985#15",
        "ep_b1500#16",
        "ep_b5#17",
        "ep_b3005#18",
        "ep_b1490#19",
        "ep_b2995#20",
        "ep_b1500#21",
        "ep_b3000#22",
        "ep_b1495#23",
        "ep_b3005#24",
        "ep_b1490#25",
        "ep_b2985#26",
        "ep_b1505#27",
        "ep_b2995#28",
        "ep_b1500#29",
        "ep_b3000#30",
        "ep_b1490#31",
        "ep_b3005#32",
        "ep_b5#33",
        "ep_b1505#34",
        "ep_b3000#35",
        "ep_b1490#36",
        "ep_b2980#37",
        "ep_b1495#38",
        "ep_b2995#39",
        "ep_b1505#40",
        "ep_b2995#41",
        "ep_b1500#42",
        "ep_b2985#43",
        "ep_b1495#44",
        "ep_b3000#45",
        "ep_b1495#46",
        "ep_b3000#47",
        "ep_b1490#48",
        "ep_b5#49",
        "ep_b3005#50",
        "ep_b1500#51",
        "ep_b2990#52",
        "ep_b1505#53",
        "ep_b2995#54",
        "ep_b1495#55",
        "ep_b2985#56",
        "ep_b1490#57",
        "ep_b2995#58",
        "ep_b1500#59",
        "ep_b3000#60",
        "ep_b1500#61",
        "ep_b2985#62",
        "ep_b1500#63",
        "ep_b2990#64",
        "ep_b5#65",
        "ep_b1505#66",
        "ep_b3005#67",
        "ep_b1495#68",
        "ep_b3000#69",
        "ep_b1505#70",
        "ep_b3010#71",
        "ep_b1500#72",
        "ep_b3005#73",
        "ep_b1490#74",
        "ep_b2995#75",
        "ep_b1490#76",
        "ep_b3000#77",
        "ep_b1505#78",
        "ep_b3000#79",
        "ep_b1490#80",
        "ep_b5#81",
        "ep_b2985#82",
        "ep_b1500#83",
        "ep_b2985#84",
        "ep_b1490#85",
        "ep_b2995#86",
        "ep_b1495#87",
        "ep_b2995#88",
        "ep_b1490#89",
        "ep_b2980#90",
        "ep_b1500#91",
        "ep_b3000#92",
        "ep_b1490#93",
        "ep_b3005#94",
        "ep_b1495#95",
        "ep_b2990#96",
        "ep_b1500#97",
        "ep_b3000#98"
      ],
      "TriggerTime": [
        18780,
        22010,
        25240,
        28470,
        31700,
        34930,
        38160,
        41390,
        44620,
        47850,
        51080,
        54310,
        57540,
        60770,
        64000,
        67230,
        70460,
        73690,
        76920,
        80150,
        83380,
        86610,
        89840,
        93070,
        96300,
        99530,
        102760,
        105990,
        109220,
        112450,
        115680,
        118910,
        122140,
        125370,
        128600,
        131830,
        135060,
        138290,
        141520,
        144750,
        147980,
        151210,
        154440,
        157670,
        160900,
        164130,
        167360,
        170590,
        173820,
        177050,
        180280,
        183510,
        186740,
        189970,
        193200,
        196430,
        199660,
        202890,
        206120,
        209350,
        212580,
        215810,
        219040,
        222270,
        225500,
        228730,
        231960,
        235190,
        238420,
        241650,
        244880,
        248110,
        251340,
        254570,
        257800,
        261030,
        264260,
        267490,
        270720,
        273950,
        277180,
        280410,
        283640,
        286870,
        290100,
        293330,
        296560,
        299790,
        303020,
        306250,
        309480,
        312710,
        315940,
        319170,
        322400,
        325630,
        328860,
        332090,
        335320
      ],
      "WindowCenter": [
        4797,
        4798,
        1614,
        906,
        1630,
        913,
        1628,
        879,
        1615,
        897,
        1589,
        920,
        1629,
        936,
        1628,
        907,
        1611,
        4844,
        928,
        1628,
        921,
        1630,
        907,
        1602,
        918,
        1615,
        900,
        1599,
        898,
        1628,
        900,
        1629,
        914,
        4800,
        1613,
        915,
        1613,
        885,
        1629,
        923,
        1626,
        880,
        1611,
        942,
        1629,
        878,
        1603,
        922,
        1626,
        4814,
        898,
        1640,
        905,
        1599,
        898,
        1628,
        918,
        1641,
        903,
        1616,
        912,
        1612,
        898,
        1656,
        921,
        4793,
        1586,
        930,
        1627,
        909,
        1610,
        915,
        1628,
        895,
        1612,
        897,
        1628,
        921,
        1614,
        878,
        1628,
        4800,
        915,
        1601,
        901,
        1615,
        896,
        1600,
        895,
        1601,
        898,
        1601,
        906,
        1642,
        929,
        1614,
        908,
        1612,
        914
      ],
      "WindowWidth": [
        10803,
        10844,
        4089,
        2470,
        4126,
        2474,
        4122,
        2409,
        4094,
        2437,
        4046,
        2501,
        4124,
        2541,
        4125,
        2475,
        4083,
        10900,
        2510,
        4121,
        2507,
        4128,
        2475,
        4069,
        2495,
        4095,
        2446,
        4055,
        2459,
        4120,
        2447,
        4124,
        2477,
        10820,
        4084,
        2484,
        4088,
        2408,
        4128,
        2513,
        4111,
        2411,
        4083,
        2543,
        4124,
        2404,
        4075,
        2510,
        4112,
        10853,
        2440,
        4141,
        2470,
        4059,
        2458,
        4121,
        2495,
        4144,
        2458,
        4099,
        2474,
        4088,
        2439,
        4178,
        2506,
        10824,
        4031,
        2520,
        4117,
        2480,
        4073,
        2483,
        4124,
        2431,
        4086,
        2454,
        4117,
        2504,
        4088,
        2405,
        4126,
        10818,
        2481,
        4068,
        2453,
        4092,
        2453,
        4064,
        2447,
        4067,
        2440,
        4068,
        2471,
        4147,
        2515,
        4093,
        2478,
        4085,
        2477
      ]
    },
    "slices": {}
  }
}
