{
  "AcquisitionMatrixPE": 140,
  "AcquisitionNumber": 1,
  "AcquisitionTime": "09:09:2.875000",
  "BandwidthPerPixelPhaseEncode": 10.352,
  "BaseResolution": 140,
  "BodyPartExamined": "BRAIN",
  "CoilCombinationMethod": "Sum of Squares",
  "ConsistencyInfo": "N4_VE11C_LATEST_20160120",
  "ConversionSoftware": "dcm2niix",
  "ConversionSoftwareVersion": "v1.0.20220720",
  "DerivedVendorReportedEchoSpacing": 0.000689998,
  "DeviceSerialNumber": "67026",
  "DiffusionScheme": "Monopolar",
  "DwellTime": 2.1e-06,
  "EchoTime": 0.0892,
  "EchoTrainLength": 105,
  "EffectiveEchoSpacing": 0.000689998,
  "FlipAngle": 78,
  "HeudiconvVersion": "0.11.4",
  "ImageComments": "Unaliased MB4/PE3/LB SENSE1",
  "ImageOrientationPatientDICOM": [
    0.996626,
    0.0152308,
    -0.0806465,
    -0.0320167,
    0.976927,
    -0.21116
  ],
  "ImageOrientationText": "Tra>Cor(-12.3)>Sag(-4.3)",
  "ImageType": [
    "ORIGINAL",
    "PRIMARY",
    "DIFFUSION",
    "NONE",
    "MB",
    "ND",
    "MOSAIC"
  ],
  "ImagingFrequency": 123.236,
  "InPlanePhaseEncodingDirectionDICOM": "COL",
  "InstitutionAddress": "13th St. 149,Charlestown,MA,US,02129",
  "InstitutionName": "MGH PrismaFit-Bay4",
  "InstitutionalDepartmentName": "Martinos Center",
  "MRAcquisitionType": "2D",
  "MagneticFieldStrength": 3,
  "Manufacturer": "Siemens",
  "ManufacturersModelName": "Prisma_fit",
  "MatrixCoilMode": "SENSE",
  "Modality": "MR",
  "MultibandAccelerationFactor": 4,
  "NonlinearGradientCorrection": false,
  "PartialFourier": 0.75,
  "PatientPosition": "HFS",
  "PercentPhaseFOV": 100,
  "PercentSampling": 100,
  "PhaseEncodingDirection": "j-",
  "PhaseEncodingSteps": 105,
  "PhaseResolution": 1,
  "PixelBandwidth": 1700,
  "ProcedureStepDescription": "INVESTIGATORS^Greve",
  "ProtocolName": "dMRI_dir98_AP",
  "PulseSequenceDetails": "%CustomerSeq%\\hcp_mbep2d_diff",
  "ReceiveCoilActiveElements": "HEA;HEP",
  "ReceiveCoilName": "Head_32",
  "ReconMatrixPE": 140,
  "RepetitionTime": 3.23,
  "SAR": 0.1562,
  "ScanOptions": "PFP\\EXT",
  "ScanningSequence": "EP",
  "SequenceName": "ep_b5#1",
  "SequenceVariant": "SK\\SS",
  "SeriesDescription": "dMRI_dir98_AP",
  "SeriesNumber": 42,
  "ShimSetting": [
    -1283,
    -10382,
    -10211,
    502,
    10,
    87,
    -108,
    31
  ],
  "SliceThickness": 1.5,
  "SliceTiming": [
    0,
    1.675,
    0.14,
    1.815,
    0.28,
    1.955,
    0.4175,
    2.0925,
    0.5575,
    2.2325,
    0.6975,
    2.3725,
    0.8375,
    2.5125,
    0.9775,
    2.6525,
    1.1175,
    2.79,
    1.255,
    2.93,
    1.395,
    3.07,
    1.535,
    0,
    1.675,
    0.14,
    1.815,
    0.28,
    1.955,
    0.4175,
    2.0925,
    0.5575,
    2.2325,
    0.6975,
    2.3725,
    0.8375,
    2.5125,
    0.9775,
    2.6525,
    1.1175,
    2.79,
    1.255,
    2.93,
    1.395,
    3.07,
    1.535,
    0,
    1.675,
    0.14,
    1.815,
    0.28,
    1.955,
    0.4175,
    2.0925,
    0.5575,
    2.2325,
    0.6975,
    2.3725,
    0.8375,
    2.5125,
    0.9775,
    2.6525,
    1.1175,
    2.79,
    1.255,
    2.93,
    1.395,
    3.07,
    1.535,
    0,
    1.675,
    0.14,
    1.815,
    0.28,
    1.955,
    0.4175,
    2.0925,
    0.5575,
    2.2325,
    0.6975,
    2.3725,
    0.8375,
    2.5125,
    0.9775,
    2.6525,
    1.1175,
    2.79,
    1.255,
    2.93,
    1.395,
    3.07,
    1.535
  ],
  "SoftwareVersions": "syngo MR E11",
  "SpacingBetweenSlices": 1.5,
  "StationName": "BAY4OC",
  "TotalReadoutTime": 0.0959097,
  "TxRefAmp": 236.254,
  "WipMemBlock": "267554da-2370-46a1-a08f-9cfe317f9c00||Sequence: ve11c/master r/5b0256d+; Dec  9 2016 09:48:43 by eja",
  "dcmmeta_affine": [
    [
      -1.4949395656585693,
      -0.048025116324424744,
      -0.1133544072508812,
      112.95362854003906
    ],
    [
      -0.022846242412924767,
      1.4653904438018799,
      -0.3195446729660034,
      -68.97975158691406
    ],
    [
      -0.12096976488828659,
      0.31674015522003174,
      1.4611783027648926,
      -63.92502212524414
    ],
    [
      0,
      0,
      0,
      1
    ]
  ],
  "dcmmeta_reorient_transform": [
    [
      0,
      -1,
      0,
      139
    ],
    [
      1,
      0,
      0,
      0
    ],
    [
      0,
      0,
      1,
      0
    ],
    [
      0,
      0,
      0,
      1
    ]
  ],
  "dcmmeta_shape": [
    140,
    140,
    92,
    99
  ],
  "dcmmeta_slice_dim": 2,
  "dcmmeta_version": 0.6,
  "time": {
    "samples": {
      "AcquisitionNumber": [
        1,
        2,
        3,
        4,
        5,
        6,
        7,
        8,
        9,
        10,
        11,
        12,
        13,
        14,
        15,
        16,
        17,
        18,
        19,
        20,
        21,
        22,
        23,
        24,
        25,
        26,
        27,
        28,
        29,
        30,
        31,
        32,
        33,
        34,
        35,
        36,
        37,
        38,
        39,
        40,
        41,
        42,
        43,
        44,
        45,
        46,
        47,
        48,
        49,
        50,
        51,
        52,
        53,
        54,
        55,
        56,
        57,
        58,
        59,
        60,
        61,
        62,
        63,
        64,
        65,
        66,
        67,
        68,
        69,
        70,
        71,
        72,
        73,
        74,
        75,
        76,
        77,
        78,
        79,
        80,
        81,
        82,
        83,
        84,
        85,
        86,
        87,
        88,
        89,
        90,
        91,
        92,
        93,
        94,
        95,
        96,
        97,
        98,
        99
      ],
      "AcquisitionTime": [
        "090902.875000",
        "090906.105000",
        "090909.335000",
        "090912.565000",
        "090915.795000",
        "090919.025000",
        "090922.255000",
        "090925.485000",
        "090928.715000",
        "090931.945000",
        "090935.175000",
        "090938.405000",
        "090941.635000",
        "090944.865000",
        "090948.095000",
        "090951.325000",
        "090954.555000",
        "090957.785000",
        "091001.015000",
        "091004.245000",
        "091007.475000",
        "091010.705000",
        "091013.935000",
        "091017.165000",
        "091020.395000",
        "091023.625000",
        "091026.855000",
        "091030.085000",
        "091033.315000",
        "091036.545000",
        "091039.775000",
        "091043.005000",
        "091046.235000",
        "091049.465000",
        "091052.695000",
        "091055.925000",
        "091059.155000",
        "091102.385000",
        "091105.615000",
        "091108.845000",
        "091112.075000",
        "091115.305000",
        "091118.535000",
        "091121.765000",
        "091124.995000",
        "091128.225000",
        "091131.455000",
        "091134.685000",
        "091137.915000",
        "091141.145000",
        "091144.375000",
        "091147.605000",
        "091150.835000",
        "091154.065000",
        "091157.295000",
        "091200.525000",
        "091203.755000",
        "091206.985000",
        "091210.215000",
        "091213.445000",
        "091216.675000",
        "091219.905000",
        "091223.135000",
        "091226.365000",
        "091229.595000",
        "091232.825000",
        "091236.055000",
        "091239.285000",
        "091242.515000",
        "091245.745000",
        "091248.975000",
        "091252.205000",
        "091255.435000",
        "091258.665000",
        "091301.895000",
        "091305.125000",
        "091308.355000",
        "091311.585000",
        "091314.815000",
        "091318.045000",
        "091321.275000",
        "091324.505000",
        "091327.735000",
        "091330.965000",
        "091334.195000",
        "091337.425000",
        "091340.655000",
        "091343.885000",
        "091347.115000",
        "091350.345000",
        "091353.575000",
        "091356.805000",
        "091400.035000",
        "091403.265000",
        "091406.495000",
        "091409.725000",
        "091412.955000",
        "091416.185000",
        "091419.415000"
      ],
      "ContentTime": [
        "091146.767000",
        "091146.773000",
        "091146.777000",
        "091146.786000",
        "091146.789000",
        "091146.793000",
        "091146.796000",
        "091146.800000",
        "091146.803000",
        "091146.806000",
        "091146.810000",
        "091146.814000",
        "091146.817000",
        "091146.821000",
        "091146.824000",
        "091146.828000",
        "091146.831000",
        "091146.835000",
        "091146.838000",
        "091146.841000",
        "091146.845000",
        "091146.848000",
        "091146.852000",
        "091146.858000",
        "091146.861000",
        "091146.865000",
        "091146.868000",
        "091146.872000",
        "091146.875000",
        "091146.878000",
        "091146.882000",
        "091146.885000",
        "091146.889000",
        "091206.710000",
        "091206.714000",
        "091206.718000",
        "091206.721000",
        "091206.724000",
        "091206.728000",
        "091206.732000",
        "091206.735000",
        "091206.739000",
        "091206.742000",
        "091206.746000",
        "091206.749000",
        "091206.753000",
        "091206.756000",
        "091206.759000",
        "091206.765000",
        "091206.768000",
        "091206.772000",
        "091206.775000",
        "091206.779000",
        "091206.782000",
        "091306.710000",
        "091306.714000",
        "091306.723000",
        "091306.727000",
        "091306.730000",
        "091306.733000",
        "091306.737000",
        "091306.740000",
        "091306.744000",
        "091306.762000",
        "091306.766000",
        "091306.769000",
        "091306.772000",
        "091306.776000",
        "091306.779000",
        "091306.783000",
        "091306.786000",
        "091306.789000",
        "091306.793000",
        "091306.796000",
        "091346.711000",
        "091346.714000",
        "091346.721000",
        "091346.724000",
        "091346.728000",
        "091346.732000",
        "091346.735000",
        "091346.739000",
        "091346.742000",
        "091346.745000",
        "091346.749000",
        "091346.752000",
        "091425.600000",
        "091425.604000",
        "091425.607000",
        "091425.611000",
        "091425.614000",
        "091425.618000",
        "091425.621000",
        "091425.625000",
        "091425.628000",
        "091425.632000",
        "091425.635000",
        "091425.640000",
        "091425.643000"
      ],
      "InstanceCreationTime": [
        "091146.767000",
        "091146.773000",
        "091146.777000",
        "091146.786000",
        "091146.789000",
        "091146.793000",
        "091146.796000",
        "091146.800000",
        "091146.803000",
        "091146.806000",
        "091146.810000",
        "091146.814000",
        "091146.817000",
        "091146.821000",
        "091146.824000",
        "091146.828000",
        "091146.831000",
        "091146.835000",
        "091146.838000",
        "091146.841000",
        "091146.845000",
        "091146.848000",
        "091146.852000",
        "091146.858000",
        "091146.861000",
        "091146.865000",
        "091146.868000",
        "091146.872000",
        "091146.875000",
        "091146.878000",
        "091146.882000",
        "091146.885000",
        "091146.889000",
        "091206.710000",
        "091206.714000",
        "091206.718000",
        "091206.721000",
        "091206.724000",
        "091206.728000",
        "091206.732000",
        "091206.735000",
        "091206.739000",
        "091206.742000",
        "091206.746000",
        "091206.749000",
        "091206.753000",
        "091206.756000",
        "091206.759000",
        "091206.765000",
        "091206.768000",
        "091206.772000",
        "091206.775000",
        "091206.779000",
        "091206.782000",
        "091306.710000",
        "091306.714000",
        "091306.723000",
        "091306.727000",
        "091306.730000",
        "091306.733000",
        "091306.737000",
        "091306.740000",
        "091306.744000",
        "091306.762000",
        "091306.766000",
        "091306.769000",
        "091306.772000",
        "091306.776000",
        "091306.779000",
        "091306.783000",
        "091306.786000",
        "091306.789000",
        "091306.793000",
        "091306.796000",
        "091346.711000",
        "091346.714000",
        "091346.721000",
        "091346.724000",
        "091346.728000",
        "091346.732000",
        "091346.735000",
        "091346.739000",
        "091346.742000",
        "091346.745000",
        "091346.749000",
        "091346.752000",
        "091425.600000",
        "091425.604000",
        "091425.607000",
        "091425.611000",
        "091425.614000",
        "091425.618000",
        "091425.621000",
        "091425.625000",
        "091425.628000",
        "091425.632000",
        "091425.635000",
        "091425.640000",
        "091425.643000"
      ],
      "InstanceNumber": [
        1,
        2,
        3,
        4,
        5,
        6,
        7,
        8,
        9,
        10,
        11,
        12,
        13,
        14,
        15,
        16,
        17,
        18,
        19,
        20,
        21,
        22,
        23,
        24,
        25,
        26,
        27,
        28,
        29,
        30,
        31,
        32,
        33,
        34,
        35,
        36,
        37,
        38,
        39,
        40,
        41,
        42,
        43,
        44,
        45,
        46,
        47,
        48,
        49,
        50,
        51,
        52,
        53,
        54,
        55,
        56,
        57,
        58,
        59,
        60,
        61,
        62,
        63,
        64,
        65,
        66,
        67,
        68,
        69,
        70,
        71,
        72,
        73,
        74,
        75,
        76,
        77,
        78,
        79,
        80,
        81,
        82,
        83,
        84,
        85,
        86,
        87,
        88,
        89,
        90,
        91,
        92,
        93,
        94,
        95,
        96,
        97,
        98,
        99
      ],
      "LargestImagePixelValue": [
        19189,
        17223,
        5273,
        2209,
        6019,
        2775,
        5811,
        2354,
        5245,
        2586,
        5963,
        2374,
        6060,
        2695,
        5483,
        2449,
        6158,
        23192,
        2787,
        5468,
        2328,
        5300,
        2252,
        4920,
        2328,
        5024,
        2650,
        5778,
        2237,
        5432,
        2743,
        5214,
        2690,
        18106,
        5645,
        2180,
        5204,
        2472,
        5057,
        2653,
        5904,
        2093,
        5785,
        2591,
        5510,
        2312,
        5150,
        2583,
        6007,
        18347,
        2998,
        5357,
        2163,
        5357,
        2167,
        4661,
        2647,
        5641,
        2429,
        5110,
        2638,
        5645,
        2412,
        5996,
        2930,
        19283,
        5556,
        2801,
        6026,
        2446,
        6080,
        2826,
        5695,
        2571,
        5420,
        2473,
        5869,
        2119,
        6027,
        2356,
        5127,
        18961,
        2727,
        5722,
        2176,
        5988,
        2303,
        5375,
        2328,
        5070,
        2564,
        5495,
        2346,
        6151,
        3304,
        5554,
        2387,
        5911,
        2394
      ],
      "SequenceName": [
        "ep_b5#1",
        "ep_b5#1",
        "ep_b1490#2",
        "ep_b2990#3",
        "ep_b1495#4",
        "ep_b3005#5",
        "ep_b1500#6",
        "ep_b2985#7",
        "ep_b1495#8",
        "ep_b3005#9",
        "ep_b1490#10",
        "ep_b2995#11",
        "ep_b1490#12",
        "ep_b2985#13",
        "ep_b1500#14",
        "ep_b2985#15",
        "ep_b1500#16",
        "ep_b5#17",
        "ep_b3005#18",
        "ep_b1490#19",
        "ep_b2995#20",
        "ep_b1500#21",
        "ep_b3000#22",
        "ep_b1495#23",
        "ep_b3005#24",
        "ep_b1490#25",
        "ep_b2985#26",
        "ep_b1505#27",
        "ep_b2995#28",
        "ep_b1500#29",
        "ep_b3000#30",
        "ep_b1490#31",
        "ep_b3005#32",
        "ep_b5#33",
        "ep_b1505#34",
        "ep_b3000#35",
        "ep_b1490#36",
        "ep_b2980#37",
        "ep_b1495#38",
        "ep_b2995#39",
        "ep_b1505#40",
        "ep_b2995#41",
        "ep_b1500#42",
        "ep_b2985#43",
        "ep_b1495#44",
        "ep_b3000#45",
        "ep_b1495#46",
        "ep_b3000#47",
        "ep_b1490#48",
        "ep_b5#49",
        "ep_b3005#50",
        "ep_b1500#51",
        "ep_b2990#52",
        "ep_b1505#53",
        "ep_b2995#54",
        "ep_b1495#55",
        "ep_b2985#56",
        "ep_b1490#57",
        "ep_b3000#58",
        "ep_b1500#59",
        "ep_b3000#60",
        "ep_b1500#61",
        "ep_b2985#62",
        "ep_b1500#63",
        "ep_b2990#64",
        "ep_b5#65",
        "ep_b1505#66",
        "ep_b3005#67",
        "ep_b1495#68",
        "ep_b3000#69",
        "ep_b1505#70",
        "ep_b3010#71",
        "ep_b1500#72",
        "ep_b3005#73",
        "ep_b1490#74",
        "ep_b2995#75",
        "ep_b1490#76",
        "ep_b3000#77",
        "ep_b1505#78",
        "ep_b3000#79",
        "ep_b1490#80",
        "ep_b5#81",
        "ep_b2985#82",
        "ep_b1500#83",
        "ep_b2985#84",
        "ep_b1490#85",
        "ep_b2995#86",
        "ep_b1495#87",
        "ep_b2995#88",
        "ep_b1490#89",
        "ep_b2980#90",
        "ep_b1500#91",
        "ep_b3000#92",
        "ep_b1490#93",
        "ep_b3005#94",
        "ep_b1495#95",
        "ep_b2990#96",
        "ep_b1500#97",
        "ep_b3000#98"
      ],
      "TriggerTime": [
        18777.5,
        22007.5,
        25237.5,
        28467.5,
        31697.5,
        34927.5,
        38157.5,
        41387.5,
        44617.5,
        47847.5,
        51077.5,
        54307.5,
        57537.5,
        60767.5,
        63997.5,
        67227.5,
        70457.5,
        73687.5,
        76917.5,
        80147.5,
        83377.5,
        86607.5,
        89837.5,
        93067.5,
        96297.5,
        99527.5,
        102757.5,
        105987.5,
        109217.5,
        112447.5,
        115677.5,
        118907.5,
        122137.5,
        125367.5,
        128597.5,
        131827.5,
        135057.5,
        138287.5,
        141517.5,
        144747.5,
        147977.5,
        151207.5,
        154437.5,
        157667.5,
        160897.5,
        164127.5,
        167357.5,
        170587.5,
        173817.5,
        177047.5,
        180277.5,
        183507.5,
        186737.5,
        189967.5,
        193197.5,
        196427.5,
        199657.5,
        202887.5,
        206117.5,
        209347.5,
        212577.5,
        215807.5,
        219037.5,
        222267.5,
        225497.5,
        228727.5,
        231957.5,
        235187.5,
        238417.5,
        241647.5,
        244877.5,
        248107.5,
        251337.5,
        254567.5,
        257797.5,
        261027.5,
        264257.5,
        267487.5,
        270717.5,
        273947.5,
        277177.5,
        280407.5,
        283637.5,
        286867.5,
        290097.5,
        293327.5,
        296557.5,
        299787.5,
        303017.5,
        306247.5,
        309477.5,
        312707.5,
        315937.5,
        319167.5,
        322397.5,
        325627.5,
        328857.5,
        332087.5,
        335317.5
      ],
      "WindowCenter": [
        3876,
        3869,
        1512,
        837,
        1537,
        885,
        1504,
        861,
        1527,
        858,
        1506,
        840,
        1534,
        902,
        1506,
        885,
        1505,
        3910,
        903,
        1539,
        839,
        1491,
        861,
        1516,
        840,
        1491,
        861,
        1491,
        878,
        1505,
        889,
        1514,
        861,
        3865,
        1504,
        840,
        1497,
        874,
        1489,
        869,
        1490,
        841,
        1490,
        879,
        1540,
        834,
        1496,
        902,
        1521,
        3864,
        886,
        1490,
        858,
        1490,
        878,
        1492,
        877,
        1521,
        859,
        1514,
        862,
        1502,
        874,
        1518,
        896,
        3862,
        1490,
        906,
        1522,
        864,
        1491,
        893,
        1519,
        857,
        1507,
        886,
        1537,
        840,
        1504,
        841,
        1490,
        3864,
        900,
        1509,
        835,
        1519,
        880,
        1509,
        840,
        1493,
        874,
        1513,
        840,
        1532,
        918,
        1491,
        863,
        1506,
        847
      ],
      "WindowWidth": [
        8902,
        8902,
        3871,
        2298,
        3922,
        2398,
        3850,
        2364,
        3904,
        2339,
        3851,
        2308,
        3911,
        2462,
        3857,
        2417,
        3852,
        8957,
        2445,
        3926,
        2304,
        3820,
        2363,
        3883,
        2308,
        3823,
        2349,
        3815,
        2408,
        3849,
        2416,
        3880,
        2349,
        8884,
        3843,
        2307,
        3841,
        2375,
        3814,
        2380,
        3814,
        2311,
        3821,
        2396,
        3930,
        2286,
        3837,
        2462,
        3883,
        8886,
        2402,
        3817,
        2356,
        3818,
        2409,
        3825,
        2389,
        3885,
        2345,
        3879,
        2355,
        3843,
        2377,
        3879,
        2440,
        8873,
        3814,
        2457,
        3887,
        2360,
        3817,
        2429,
        3879,
        2334,
        3856,
        2421,
        3918,
        2307,
        3844,
        2309,
        3817,
        8881,
        2435,
        3862,
        2288,
        3875,
        2414,
        3862,
        2310,
        3828,
        2378,
        3873,
        2307,
        3906,
        2483,
        3824,
        2372,
        3851,
        2314
      ]
    },
    "slices": {}
  }
}
