{
  "AcquisitionMatrixPE": 104,
  "AcquisitionNumber": 1,
  "AcquisitionTime": "19:55:53.735000",
  "BandwidthPerPixelPhaseEncode": 16.578,
  "BaseResolution": 104,
  "BodyPartExamined": "BRAIN",
  "CoilCombinationMethod": "Sum of Squares",
  "ConsistencyInfo": "N4_VE11C_LATEST_20160120",
  "ConversionSoftware": "dcm2niix",
  "ConversionSoftwareVersion": "v1.0.20220720",
  "DerivedVendorReportedEchoSpacing": 0.000580009,
  "DeviceSerialNumber": "67026",
  "DwellTime": 2.1e-06,
  "EchoTime": 0.037,
  "EchoTrainLength": 104,
  "EffectiveEchoSpacing": 0.000580009,
  "FlipAngle": 52,
  "HeudiconvVersion": "0.11.4",
  "ImageComments": "Unaliased MB8/PE3/LB",
  "ImageOrientationPatientDICOM": [
    0.99863,
    0.00566451,
    0.0520121,
    0.0108067,
    0.950352,
    -0.310988
  ],
  "ImageOrientationText": "Tra>Cor(-18.2)>Sag(2.9)",
  "ImageType": [
    "ORIGINAL",
    "PRIMARY",
    "M",
    "MB",
    "ND",
    "MOSAIC"
  ],
  "ImagingFrequency": 123.167,
  "InPlanePhaseEncodingDirectionDICOM": "COL",
  "InstitutionAddress": "13th St. 149,Charlestown,MA,US,02129",
  "InstitutionName": "MGH PrismaFit-Bay4",
  "InstitutionalDepartmentName": "Martinos Center",
  "MRAcquisitionType": "2D",
  "MagneticFieldStrength": 3,
  "Manufacturer": "Siemens",
  "ManufacturersModelName": "Prisma_fit",
  "MatrixCoilMode": "SENSE",
  "Modality": "MR",
  "MultibandAccelerationFactor": 8,
  "NonlinearGradientCorrection": false,
  "PartialFourier": 1,
  "PatientPosition": "HFS",
  "PercentPhaseFOV": 100,
  "PercentSampling": 100,
  "PhaseEncodingDirection": "j-",
  "PhaseEncodingSteps": 104,
  "PhaseResolution": 1,
  "PixelBandwidth": 2290,
  "ProcedureStepDescription": "INVESTIGATORS^Greve",
  "ProtocolName": "rfMRI_REST_AP",
  "PulseSequenceDetails": "%CustomerSeq%\\hcp_mbep2d_bold",
  "ReceiveCoilActiveElements": "HEA;HEP",
  "ReceiveCoilName": "Head_32",
  "ReconMatrixPE": 104,
  "RepetitionTime": 0.8,
  "SAR": 0.0697221,
  "ScanOptions": "FS\\EXT",
  "ScanningSequence": "EP",
  "SequenceName": "epfid2d1_104",
  "SequenceVariant": "SK\\SS",
  "SeriesDescription": "rfMRI_REST_AP",
  "SeriesNumber": 21,
  "ShimSetting": [
    -1170,
    -10494,
    -10065,
    568,
    213,
    272,
    -34,
    -52
  ],
  "SliceThickness": 2,
  "SliceTiming": [
    0,
    0.435,
    0.0875,
    0.52,
    0.175,
    0.6075,
    0.26,
    0.695,
    0.3475,
    0,
    0.435,
    0.0875,
    0.52,
    0.175,
    0.6075,
    0.26,
    0.695,
    0.3475,
    0,
    0.435,
    0.0875,
    0.52,
    0.175,
    0.6075,
    0.26,
    0.695,
    0.3475,
    0,
    0.435,
    0.0875,
    0.52,
    0.175,
    0.6075,
    0.26,
    0.695,
    0.3475,
    0,
    0.435,
    0.0875,
    0.52,
    0.175,
    0.6075,
    0.26,
    0.695,
    0.3475,
    0,
    0.435,
    0.0875,
    0.52,
    0.175,
    0.6075,
    0.26,
    0.695,
    0.3475,
    0,
    0.435,
    0.0875,
    0.52,
    0.175,
    0.6075,
    0.26,
    0.695,
    0.3475,
    0,
    0.435,
    0.0875,
    0.52,
    0.175,
    0.6075,
    0.26,
    0.695,
    0.3475
  ],
  "SoftwareVersions": "syngo MR E11",
  "SpacingBetweenSlices": 2,
  "StationName": "BAY4OC",
  "TaskName": "rest",
  "TotalReadoutTime": 0.0597409,
  "TxRefAmp": 232.72,
  "WipMemBlock": "8d0983dd-dd79-4e97-a0eb-4d4c1ddf2e8f||Sequence: ve11c/master r/5b0256d+; Dec  9 2016 09:38:51 by eja",
  "dcmmeta_affine": [
    [
      -1.9972608089447021,
      0.02161332033574581,
      0.10238281637430191,
      103.7641830444336
    ],
    [
      -0.011329017579555511,
      1.9007047414779663,
      -0.6222484111785889,
      -64.39566802978516
    ],
    [
      0.10402417927980423,
      0.6219761371612549,
      1.8979791402816772,
      -67.95167541503906
    ],
    [
      0,
      0,
      0,
      1
    ]
  ],
  "dcmmeta_reorient_transform": [
    [
      0,
      -1,
      0,
      103
    ],
    [
      1,
      0,
      0,
      0
    ],
    [
      0,
      0,
      1,
      0
    ],
    [
      0,
      0,
      0,
      1
    ]
  ],
  "dcmmeta_shape": [
    104,
    104,
    72,
    563
  ],
  "dcmmeta_slice_dim": 2,
  "dcmmeta_version": 0.6,
  "time": {
    "samples": {
      "AcquisitionNumber": [
        1,
        2,
        3,
        4,
        5,
        6,
        7,
        8,
        9,
        10,
        11,
        12,
        13,
        14,
        15,
        16,
        17,
        18,
        19,
        20,
        21,
        22,
        23,
        24,
        25,
        26,
        27,
        28,
        29,
        30,
        31,
        32,
        33,
        34,
        35,
        36,
        37,
        38,
        39,
        40,
        41,
        42,
        43,
        44,
        45,
        46,
        47,
        48,
        49,
        50,
        51,
        52,
        53,
        54,
        55,
        56,
        57,
        58,
        59,
        60,
        61,
        62,
        63,
        64,
        65,
        66,
        67,
        68,
        69,
        70,
        71,
        72,
        73,
        74,
        75,
        76,
        77,
        78,
        79,
        80,
        81,
        82,
        83,
        84,
        85,
        86,
        87,
        88,
        89,
        90,
        91,
        92,
        93,
        94,
        95,
        96,
        97,
        98,
        99,
        100,
        101,
        102,
        103,
        104,
        105,
        106,
        107,
        108,
        109,
        110,
        111,
        112,
        113,
        114,
        115,
        116,
        117,
        118,
        119,
        120,
        121,
        122,
        123,
        124,
        125,
        126,
        127,
        128,
        129,
        130,
        131,
        132,
        133,
        134,
        135,
        136,
        137,
        138,
        139,
        140,
        141,
        142,
        143,
        144,
        145,
        146,
        147,
        148,
        149,
        150,
        151,
        152,
        153,
        154,
        155,
        156,
        157,
        158,
        159,
        160,
        161,
        162,
        163,
        164,
        165,
        166,
        167,
        168,
        169,
        170,
        171,
        172,
        173,
        174,
        175,
        176,
        177,
        178,
        179,
        180,
        181,
        182,
        183,
        184,
        185,
        186,
        187,
        188,
        189,
        190,
        191,
        192,
        193,
        194,
        195,
        196,
        197,
        198,
        199,
        200,
        201,
        202,
        203,
        204,
        205,
        206,
        207,
        208,
        209,
        210,
        211,
        212,
        213,
        214,
        215,
        216,
        217,
        218,
        219,
        220,
        221,
        222,
        223,
        224,
        225,
        226,
        227,
        228,
        229,
        230,
        231,
        232,
        233,
        234,
        235,
        236,
        237,
        238,
        239,
        240,
        241,
        242,
        243,
        244,
        245,
        246,
        247,
        248,
        249,
        250,
        251,
        252,
        253,
        254,
        255,
        256,
        257,
        258,
        259,
        260,
        261,
        262,
        263,
        264,
        265,
        266,
        267,
        268,
        269,
        270,
        271,
        272,
        273,
        274,
        275,
        276,
        277,
        278,
        279,
        280,
        281,
        282,
        283,
        284,
        285,
        286,
        287,
        288,
        289,
        290,
        291,
        292,
        293,
        294,
        295,
        296,
        297,
        298,
        299,
        300,
        301,
        302,
        303,
        304,
        305,
        306,
        307,
        308,
        309,
        310,
        311,
        312,
        313,
        314,
        315,
        316,
        317,
        318,
        319,
        320,
        321,
        322,
        323,
        324,
        325,
        326,
        327,
        328,
        329,
        330,
        331,
        332,
        333,
        334,
        335,
        336,
        337,
        338,
        339,
        340,
        341,
        342,
        343,
        344,
        345,
        346,
        347,
        348,
        349,
        350,
        351,
        352,
        353,
        354,
        355,
        356,
        357,
        358,
        359,
        360,
        361,
        362,
        363,
        364,
        365,
        366,
        367,
        368,
        369,
        370,
        371,
        372,
        373,
        374,
        375,
        376,
        377,
        378,
        379,
        380,
        381,
        382,
        383,
        384,
        385,
        386,
        387,
        388,
        389,
        390,
        391,
        392,
        393,
        394,
        395,
        396,
        397,
        398,
        399,
        400,
        401,
        402,
        403,
        404,
        405,
        406,
        407,
        408,
        409,
        410,
        411,
        412,
        413,
        414,
        415,
        416,
        417,
        418,
        419,
        420,
        421,
        422,
        423,
        424,
        425,
        426,
        427,
        428,
        429,
        430,
        431,
        432,
        433,
        434,
        435,
        436,
        437,
        438,
        439,
        440,
        441,
        442,
        443,
        444,
        445,
        446,
        447,
        448,
        449,
        450,
        451,
        452,
        453,
        454,
        455,
        456,
        457,
        458,
        459,
        460,
        461,
        462,
        463,
        464,
        465,
        466,
        467,
        468,
        469,
        470,
        471,
        472,
        473,
        474,
        475,
        476,
        477,
        478,
        479,
        480,
        481,
        482,
        483,
        484,
        485,
        486,
        487,
        488,
        489,
        490,
        491,
        492,
        493,
        494,
        495,
        496,
        497,
        498,
        499,
        500,
        501,
        502,
        503,
        504,
        505,
        506,
        507,
        508,
        509,
        510,
        511,
        512,
        513,
        514,
        515,
        516,
        517,
        518,
        519,
        520,
        521,
        522,
        523,
        524,
        525,
        526,
        527,
        528,
        529,
        530,
        531,
        532,
        533,
        534,
        535,
        536,
        537,
        538,
        539,
        540,
        541,
        542,
        543,
        544,
        545,
        546,
        547,
        548,
        549,
        550,
        551,
        552,
        553,
        554,
        555,
        556,
        557,
        558,
        559,
        560,
        561,
        562,
        563
      ],
      "AcquisitionTime": [
        "195553.735000",
        "195554.535000",
        "195555.335000",
        "195556.135000",
        "195556.935000",
        "195557.735000",
        "195558.535000",
        "195559.335000",
        "195600.135000",
        "195600.935000",
        "195601.735000",
        "195602.535000",
        "195603.335000",
        "195604.135000",
        "195604.935000",
        "195605.735000",
        "195606.535000",
        "195607.335000",
        "195608.135000",
        "195608.935000",
        "195609.735000",
        "195610.535000",
        "195611.335000",
        "195612.135000",
        "195612.935000",
        "195613.735000",
        "195614.535000",
        "195615.335000",
        "195616.135000",
        "195616.935000",
        "195617.735000",
        "195618.535000",
        "195619.335000",
        "195620.135000",
        "195620.935000",
        "195621.735000",
        "195622.535000",
        "195623.335000",
        "195624.135000",
        "195624.935000",
        "195625.735000",
        "195626.535000",
        "195627.335000",
        "195628.135000",
        "195628.935000",
        "195629.735000",
        "195630.535000",
        "195631.335000",
        "195632.135000",
        "195632.935000",
        "195633.735000",
        "195634.535000",
        "195635.335000",
        "195636.135000",
        "195636.935000",
        "195637.735000",
        "195638.535000",
        "195639.335000",
        "195640.135000",
        "195640.935000",
        "195641.735000",
        "195642.535000",
        "195643.335000",
        "195644.135000",
        "195644.935000",
        "195645.735000",
        "195646.535000",
        "195647.335000",
        "195648.135000",
        "195648.935000",
        "195649.735000",
        "195650.535000",
        "195651.335000",
        "195652.135000",
        "195652.935000",
        "195653.735000",
        "195654.535000",
        "195655.335000",
        "195656.135000",
        "195656.935000",
        "195657.735000",
        "195658.535000",
        "195659.335000",
        "195700.135000",
        "195700.935000",
        "195701.735000",
        "195702.535000",
        "195703.335000",
        "195704.135000",
        "195704.935000",
        "195705.735000",
        "195706.535000",
        "195707.335000",
        "195708.135000",
        "195708.935000",
        "195709.735000",
        "195710.535000",
        "195711.335000",
        "195712.135000",
        "195712.935000",
        "195713.735000",
        "195714.535000",
        "195715.335000",
        "195716.135000",
        "195716.935000",
        "195717.735000",
        "195718.535000",
        "195719.335000",
        "195720.135000",
        "195720.935000",
        "195721.735000",
        "195722.535000",
        "195723.335000",
        "195724.135000",
        "195724.935000",
        "195725.735000",
        "195726.535000",
        "195727.335000",
        "195728.135000",
        "195728.935000",
        "195729.735000",
        "195730.535000",
        "195731.335000",
        "195732.135000",
        "195732.935000",
        "195733.735000",
        "195734.535000",
        "195735.335000",
        "195736.135000",
        "195736.935000",
        "195737.735000",
        "195738.535000",
        "195739.335000",
        "195740.135000",
        "195740.935000",
        "195741.735000",
        "195742.535000",
        "195743.335000",
        "195744.135000",
        "195744.935000",
        "195745.735000",
        "195746.535000",
        "195747.335000",
        "195748.135000",
        "195748.935000",
        "195749.735000",
        "195750.535000",
        "195751.335000",
        "195752.135000",
        "195752.935000",
        "195753.735000",
        "195754.535000",
        "195755.335000",
        "195756.135000",
        "195756.935000",
        "195757.735000",
        "195758.535000",
        "195759.335000",
        "195800.135000",
        "195800.935000",
        "195801.735000",
        "195802.535000",
        "195803.335000",
        "195804.135000",
        "195804.935000",
        "195805.735000",
        "195806.535000",
        "195807.335000",
        "195808.135000",
        "195808.935000",
        "195809.735000",
        "195810.535000",
        "195811.335000",
        "195812.135000",
        "195812.935000",
        "195813.735000",
        "195814.535000",
        "195815.335000",
        "195816.135000",
        "195816.935000",
        "195817.735000",
        "195818.535000",
        "195819.335000",
        "195820.135000",
        "195820.935000",
        "195821.735000",
        "195822.535000",
        "195823.335000",
        "195824.135000",
        "195824.935000",
        "195825.735000",
        "195826.535000",
        "195827.335000",
        "195828.135000",
        "195828.935000",
        "195829.735000",
        "195830.535000",
        "195831.335000",
        "195832.135000",
        "195832.935000",
        "195833.735000",
        "195834.535000",
        "195835.335000",
        "195836.135000",
        "195836.935000",
        "195837.735000",
        "195838.535000",
        "195839.335000",
        "195840.135000",
        "195840.935000",
        "195841.735000",
        "195842.535000",
        "195843.335000",
        "195844.135000",
        "195844.935000",
        "195845.735000",
        "195846.535000",
        "195847.335000",
        "195848.135000",
        "195848.935000",
        "195849.735000",
        "195850.535000",
        "195851.335000",
        "195852.135000",
        "195852.935000",
        "195853.735000",
        "195854.535000",
        "195855.335000",
        "195856.135000",
        "195856.935000",
        "195857.735000",
        "195858.535000",
        "195859.335000",
        "195900.135000",
        "195900.935000",
        "195901.735000",
        "195902.535000",
        "195903.335000",
        "195904.135000",
        "195904.935000",
        "195905.735000",
        "195906.535000",
        "195907.335000",
        "195908.135000",
        "195908.935000",
        "195909.735000",
        "195910.535000",
        "195911.335000",
        "195912.135000",
        "195912.935000",
        "195913.735000",
        "195914.535000",
        "195915.335000",
        "195916.135000",
        "195916.935000",
        "195917.735000",
        "195918.535000",
        "195919.335000",
        "195920.135000",
        "195920.935000",
        "195921.735000",
        "195922.535000",
        "195923.335000",
        "195924.135000",
        "195924.935000",
        "195925.735000",
        "195926.535000",
        "195927.335000",
        "195928.135000",
        "195928.935000",
        "195929.735000",
        "195930.535000",
        "195931.335000",
        "195932.135000",
        "195932.935000",
        "195933.735000",
        "195934.535000",
        "195935.335000",
        "195936.135000",
        "195936.935000",
        "195937.735000",
        "195938.535000",
        "195939.335000",
        "195940.135000",
        "195940.935000",
        "195941.735000",
        "195942.535000",
        "195943.335000",
        "195944.135000",
        "195944.935000",
        "195945.735000",
        "195946.535000",
        "195947.335000",
        "195948.135000",
        "195948.935000",
        "195949.735000",
        "195950.535000",
        "195951.335000",
        "195952.135000",
        "195952.935000",
        "195953.735000",
        "195954.535000",
        "195955.335000",
        "195956.135000",
        "195956.935000",
        "195957.735000",
        "195958.535000",
        "195959.335000",
        "200000.135000",
        "200000.935000",
        "200001.735000",
        "200002.535000",
        "200003.335000",
        "200004.135000",
        "200004.935000",
        "200005.735000",
        "200006.535000",
        "200007.335000",
        "200008.135000",
        "200008.935000",
        "200009.735000",
        "200010.535000",
        "200011.335000",
        "200012.135000",
        "200012.935000",
        "200013.735000",
        "200014.535000",
        "200015.335000",
        "200016.135000",
        "200016.935000",
        "200017.735000",
        "200018.535000",
        "200019.335000",
        "200020.135000",
        "200020.935000",
        "200021.735000",
        "200022.535000",
        "200023.335000",
        "200024.135000",
        "200024.935000",
        "200025.735000",
        "200026.535000",
        "200027.335000",
        "200028.135000",
        "200028.935000",
        "200029.735000",
        "200030.535000",
        "200031.335000",
        "200032.135000",
        "200032.935000",
        "200033.735000",
        "200034.535000",
        "200035.335000",
        "200036.135000",
        "200036.935000",
        "200037.735000",
        "200038.535000",
        "200039.335000",
        "200040.135000",
        "200040.935000",
        "200041.735000",
        "200042.535000",
        "200043.335000",
        "200044.135000",
        "200044.935000",
        "200045.735000",
        "200046.535000",
        "200047.335000",
        "200048.135000",
        "200048.935000",
        "200049.735000",
        "200050.535000",
        "200051.335000",
        "200052.135000",
        "200052.935000",
        "200053.735000",
        "200054.535000",
        "200055.335000",
        "200056.135000",
        "200056.935000",
        "200057.735000",
        "200058.535000",
        "200059.335000",
        "200100.135000",
        "200100.935000",
        "200101.735000",
        "200102.535000",
        "200103.335000",
        "200104.135000",
        "200104.935000",
        "200105.735000",
        "200106.535000",
        "200107.335000",
        "200108.135000",
        "200108.935000",
        "200109.735000",
        "200110.535000",
        "200111.335000",
        "200112.135000",
        "200112.935000",
        "200113.735000",
        "200114.535000",
        "200115.335000",
        "200116.135000",
        "200116.935000",
        "200117.735000",
        "200118.535000",
        "200119.335000",
        "200120.135000",
        "200120.935000",
        "200121.735000",
        "200122.535000",
        "200123.335000",
        "200124.135000",
        "200124.935000",
        "200125.735000",
        "200126.535000",
        "200127.335000",
        "200128.135000",
        "200128.935000",
        "200129.735000",
        "200130.535000",
        "200131.335000",
        "200132.135000",
        "200132.935000",
        "200133.735000",
        "200134.535000",
        "200135.335000",
        "200136.135000",
        "200136.935000",
        "200137.735000",
        "200138.535000",
        "200139.335000",
        "200140.135000",
        "200140.935000",
        "200141.735000",
        "200142.535000",
        "200143.335000",
        "200144.135000",
        "200144.935000",
        "200145.735000",
        "200146.535000",
        "200147.335000",
        "200148.135000",
        "200148.935000",
        "200149.735000",
        "200150.535000",
        "200151.335000",
        "200152.135000",
        "200152.935000",
        "200153.735000",
        "200154.535000",
        "200155.335000",
        "200156.135000",
        "200156.935000",
        "200157.735000",
        "200158.535000",
        "200159.335000",
        "200200.135000",
        "200200.935000",
        "200201.735000",
        "200202.535000",
        "200203.335000",
        "200204.135000",
        "200204.935000",
        "200205.735000",
        "200206.535000",
        "200207.335000",
        "200208.135000",
        "200208.935000",
        "200209.735000",
        "200210.535000",
        "200211.335000",
        "200212.135000",
        "200212.935000",
        "200213.735000",
        "200214.535000",
        "200215.335000",
        "200216.135000",
        "200216.935000",
        "200217.735000",
        "200218.535000",
        "200219.335000",
        "200220.135000",
        "200220.935000",
        "200221.735000",
        "200222.535000",
        "200223.335000",
        "200224.135000",
        "200224.935000",
        "200225.735000",
        "200226.535000",
        "200227.335000",
        "200228.135000",
        "200228.935000",
        "200229.735000",
        "200230.535000",
        "200231.335000",
        "200232.135000",
        "200232.935000",
        "200233.735000",
        "200234.535000",
        "200235.335000",
        "200236.135000",
        "200236.935000",
        "200237.735000",
        "200238.535000",
        "200239.335000",
        "200240.135000",
        "200240.935000",
        "200241.735000",
        "200242.535000",
        "200243.335000",
        "200244.135000",
        "200244.935000",
        "200245.735000",
        "200246.535000",
        "200247.335000",
        "200248.135000",
        "200248.935000",
        "200249.735000",
        "200250.535000",
        "200251.335000",
        "200252.135000",
        "200252.935000",
        "200253.735000",
        "200254.535000",
        "200255.335000",
        "200256.135000",
        "200256.935000",
        "200257.735000",
        "200258.535000",
        "200259.335000",
        "200300.135000",
        "200300.935000",
        "200301.735000",
        "200302.535000",
        "200303.335000",
        "200304.135000",
        "200304.935000",
        "200305.735000",
        "200306.535000",
        "200307.335000",
        "200308.135000",
        "200308.935000",
        "200309.735000",
        "200310.535000",
        "200311.335000",
        "200312.135000",
        "200312.935000",
        "200313.735000",
        "200314.535000",
        "200315.335000",
        "200316.135000",
        "200316.935000",
        "200317.735000",
        "200318.535000",
        "200319.335000",
        "200320.135000",
        "200320.935000",
        "200321.735000",
        "200322.535000",
        "200323.335000"
      ],
      "ContentTime": [
        "155636.934000",
        "155636.937000",
        "155636.941000",
        "155636.944000",
        "155636.947000",
        "155636.950000",
        "155636.953000",
        "155636.956000",
        "155636.959000",
        "155636.962000",
        "155636.972000",
        "155636.975000",
        "155636.978000",
        "155636.981000",
        "155636.984000",
        "155636.987000",
        "155636.990000",
        "155636.993000",
        "155636.996000",
        "155636.998000",
        "155637.002000",
        "155637.005000",
        "155637.008000",
        "155637.011000",
        "155637.014000",
        "155637.017000",
        "155637.020000",
        "155637.023000",
        "155637.025000",
        "155637.028000",
        "155637.031000",
        "155637.034000",
        "155637.037000",
        "155637.040000",
        "155637.043000",
        "155637.046000",
        "155637.048000",
        "155637.051000",
        "155656.865000",
        "155656.868000",
        "155656.871000",
        "155656.874000",
        "155656.877000",
        "155656.880000",
        "155656.883000",
        "155656.886000",
        "155656.889000",
        "155656.891000",
        "155656.901000",
        "155656.904000",
        "155656.907000",
        "155656.910000",
        "155656.913000",
        "155656.916000",
        "155656.919000",
        "155656.922000",
        "155656.924000",
        "155656.927000",
        "155656.930000",
        "155656.933000",
        "155656.936000",
        "155656.939000",
        "155656.942000",
        "155656.945000",
        "155656.948000",
        "155656.952000",
        "155656.955000",
        "155656.958000",
        "155656.961000",
        "155656.964000",
        "155656.967000",
        "155656.970000",
        "155656.973000",
        "155656.976000",
        "155656.979000",
        "155656.982000",
        "155656.984000",
        "155656.987000",
        "155716.865000",
        "155716.868000",
        "155716.871000",
        "155716.874000",
        "155716.877000",
        "155716.881000",
        "155716.884000",
        "155716.886000",
        "155716.889000",
        "155716.892000",
        "155716.895000",
        "155716.898000",
        "155716.901000",
        "155716.904000",
        "155716.907000",
        "155716.909000",
        "155716.912000",
        "155716.915000",
        "155716.918000",
        "155716.921000",
        "155716.924000",
        "155716.927000",
        "155716.930000",
        "155716.933000",
        "155716.935000",
        "155736.866000",
        "155736.869000",
        "155736.872000",
        "155736.875000",
        "155736.878000",
        "155736.881000",
        "155736.884000",
        "155736.887000",
        "155736.889000",
        "155736.892000",
        "155736.895000",
        "155736.898000",
        "155736.901000",
        "155736.904000",
        "155736.907000",
        "155736.910000",
        "155736.913000",
        "155736.927000",
        "155736.930000",
        "155736.933000",
        "155736.936000",
        "155736.939000",
        "155736.941000",
        "155736.944000",
        "155736.947000",
        "155756.865000",
        "155756.868000",
        "155756.871000",
        "155756.874000",
        "155756.877000",
        "155756.880000",
        "155756.883000",
        "155756.892000",
        "155756.895000",
        "155756.898000",
        "155756.901000",
        "155756.904000",
        "155756.907000",
        "155756.910000",
        "155756.913000",
        "155756.916000",
        "155756.919000",
        "155756.922000",
        "155756.925000",
        "155756.928000",
        "155756.931000",
        "155756.934000",
        "155756.937000",
        "155756.940000",
        "155756.943000",
        "155816.865000",
        "155816.868000",
        "155816.871000",
        "155816.874000",
        "155816.877000",
        "155816.880000",
        "155816.883000",
        "155816.886000",
        "155816.889000",
        "155816.892000",
        "155816.895000",
        "155816.897000",
        "155816.900000",
        "155816.903000",
        "155816.906000",
        "155816.909000",
        "155816.912000",
        "155816.915000",
        "155816.918000",
        "155816.921000",
        "155816.924000",
        "155816.927000",
        "155816.930000",
        "155816.932000",
        "155816.935000",
        "155836.865000",
