{
  "AcquisitionMatrixPE": 104,
  "AcquisitionNumber": 1,
  "AcquisitionTime": "08:58:58.152500",
  "BandwidthPerPixelPhaseEncode": 16.578,
  "BaseResolution": 104,
  "BodyPartExamined": "BRAIN",
  "CoilCombinationMethod": "Sum of Squares",
  "ConsistencyInfo": "N4_VE11C_LATEST_20160120",
  "ConversionSoftware": "dcm2niix",
  "ConversionSoftwareVersion": "v1.0.20220720",
  "DerivedVendorReportedEchoSpacing": 0.000580009,
  "DeviceSerialNumber": "67026",
  "DwellTime": 2.1e-06,
  "EchoTime": 0.037,
  "EchoTrainLength": 104,
  "EffectiveEchoSpacing": 0.000580009,
  "FlipAngle": 52,
  "HeudiconvVersion": "0.11.4",
  "ImageComments": "Unaliased MB8/PE3/LB",
  "ImageOrientationPatientDICOM": [
    0.997606,
    0.021791,
    0.0656367,
    0.012711,
    0.875125,
    -0.48373
  ],
  "ImageOrientationText": "Tra>Cor(-29.0)>Sag(3.9)",
  "ImageType": [
    "ORIGINAL",
    "PRIMARY",
    "M",
    "MB",
    "ND",
    "MOSAIC"
  ],
  "ImagingFrequency": 123.203,
  "InPlanePhaseEncodingDirectionDICOM": "COL",
  "InstitutionAddress": "13th St. 149,Charlestown,MA,US,02129",
  "InstitutionName": "MGH PrismaFit-Bay4",
  "InstitutionalDepartmentName": "Martinos Center",
  "MRAcquisitionType": "2D",
  "MagneticFieldStrength": 3,
  "Manufacturer": "Siemens",
  "ManufacturersModelName": "Prisma_fit",
  "MatrixCoilMode": "SENSE",
  "Modality": "MR",
  "MultibandAccelerationFactor": 8,
  "NonlinearGradientCorrection": false,
  "PartialFourier": 1,
  "PatientPosition": "HFS",
  "PercentPhaseFOV": 100,
  "PercentSampling": 100,
  "PhaseEncodingDirection": "j-",
  "PhaseEncodingSteps": 104,
  "PhaseResolution": 1,
  "PixelBandwidth": 2290,
  "ProcedureStepDescription": "INVESTIGATORS^Greve",
  "ProtocolName": "rfMRI_REST_AP",
  "PulseSequenceDetails": "%CustomerSeq%\\hcp_mbep2d_bold",
  "ReceiveCoilActiveElements": "HEA;HEP",
  "ReceiveCoilName": "Head_32",
  "ReconMatrixPE": 104,
  "RepetitionTime": 0.8,
  "SAR": 0.0687007,
  "ScanOptions": "FS\\EXT",
  "ScanningSequence": "EP",
  "SequenceName": "epfid2d1_104",
  "SequenceVariant": "SK\\SS",
  "SeriesDescription": "rfMRI_REST_AP",
  "SeriesNumber": 73,
  "ShimSetting": [
    -1189,
    -10470,
    -10168,
    479,
    128,
    211,
    -91,
    -46
  ],
  "SliceThickness": 2,
  "SliceTiming": [
    0,
    0.4325,
    0.085,
    0.5175,
    0.1725,
    0.605,
    0.2575,
    0.6925,
    0.345,
    0,
    0.4325,
    0.085,
    0.5175,
    0.1725,
    0.605,
    0.2575,
    0.6925,
    0.345,
    0,
    0.4325,
    0.085,
    0.5175,
    0.1725,
    0.605,
    0.2575,
    0.6925,
    0.345,
    0,
    0.4325,
    0.085,
    0.5175,
    0.1725,
    0.605,
    0.2575,
    0.6925,
    0.345,
    0,
    0.4325,
    0.085,
    0.5175,
    0.1725,
    0.605,
    0.2575,
    0.6925,
    0.345,
    0,
    0.4325,
    0.085,
    0.5175,
    0.1725,
    0.605,
    0.2575,
    0.6925,
    0.345,
    0,
    0.4325,
    0.085,
    0.5175,
    0.1725,
    0.605,
    0.2575,
    0.6925,
    0.345,
    0,
    0.4325,
    0.085,
    0.5175,
    0.1725,
    0.605,
    0.2575,
    0.6925,
    0.345
  ],
  "SoftwareVersions": "syngo MR E11",
  "SpacingBetweenSlices": 2,
  "StationName": "BAY4OC",
  "TaskName": "rest",
  "TotalReadoutTime": 0.0597409,
  "TxRefAmp": 250.707,
  "WipMemBlock": "dd8e81a3-8f86-4653-93d2-f98b6390d8c8||Sequence: ve11c/master r/5b0256d+; Dec  9 2016 09:38:51 by eja",
  "dcmmeta_affine": [
    [
      -1.9952112436294556,
      0.025422079488635063,
      0.1359625905752182,
      102.03284454345703
    ],
    [
      -0.043582018464803696,
      1.7502497434616089,
      -0.9668124914169312,
      -38.51522445678711
    ],
    [
      0.13127343356609344,
      0.9674603343009949,
      1.7455050945281982,
      -111.60462951660156
    ],
    [
      0,
      0,
      0,
      1
    ]
  ],
  "dcmmeta_reorient_transform": [
    [
      0,
      -1,
      0,
      103
    ],
    [
      1,
      0,
      0,
      0
    ],
    [
      0,
      0,
      1,
      0
    ],
    [
      0,
      0,
      0,
      1
    ]
  ],
  "dcmmeta_shape": [
    104,
    104,
    72,
    600
  ],
  "dcmmeta_slice_dim": 2,
  "dcmmeta_version": 0.6,
  "time": {
    "samples": {
      "AcquisitionNumber": [
        1,
        2,
        3,
        4,
        5,
        6,
        7,
        8,
        9,
        10,
        11,
        12,
        13,
        14,
        15,
        16,
        17,
        18,
        19,
        20,
        21,
        22,
        23,
        24,
        25,
        26,
        27,
        28,
        29,
        30,
        31,
        32,
        33,
        34,
        35,
        36,
        37,
        38,
        39,
        40,
        41,
        42,
        43,
        44,
        45,
        46,
        47,
        48,
        49,
        50,
        51,
        52,
        53,
        54,
        55,
        56,
        57,
        58,
        59,
        60,
        61,
        62,
        63,
        64,
        65,
        66,
        67,
        68,
        69,
        70,
        71,
        72,
        73,
        74,
        75,
        76,
        77,
        78,
        79,
        80,
        81,
        82,
        83,
        84,
        85,
        86,
        87,
        88,
        89,
        90,
        91,
        92,
        93,
        94,
        95,
        96,
        97,
        98,
        99,
        100,
        101,
        102,
        103,
        104,
        105,
        106,
        107,
        108,
        109,
        110,
        111,
        112,
        113,
        114,
        115,
        116,
        117,
        118,
        119,
        120,
        121,
        122,
        123,
        124,
        125,
        126,
        127,
        128,
        129,
        130,
        131,
        132,
        133,
        134,
        135,
        136,
        137,
        138,
        139,
        140,
        141,
        142,
        143,
        144,
        145,
        146,
        147,
        148,
        149,
        150,
        151,
        152,
        153,
        154,
        155,
        156,
        157,
        158,
        159,
        160,
        161,
        162,
        163,
        164,
        165,
        166,
        167,
        168,
        169,
        170,
        171,
        172,
        173,
        174,
        175,
        176,
        177,
        178,
        179,
        180,
        181,
        182,
        183,
        184,
        185,
        186,
        187,
        188,
        189,
        190,
        191,
        192,
        193,
        194,
        195,
        196,
        197,
        198,
        199,
        200,
        201,
        202,
        203,
        204,
        205,
        206,
        207,
        208,
        209,
        210,
        211,
        212,
        213,
        214,
        215,
        216,
        217,
        218,
        219,
        220,
        221,
        222,
        223,
        224,
        225,
        226,
        227,
        228,
        229,
        230,
        231,
        232,
        233,
        234,
        235,
        236,
        237,
        238,
        239,
        240,
        241,
        242,
        243,
        244,
        245,
        246,
        247,
        248,
        249,
        250,
        251,
        252,
        253,
        254,
        255,
        256,
        257,
        258,
        259,
        260,
        261,
        262,
        263,
        264,
        265,
        266,
        267,
        268,
        269,
        270,
        271,
        272,
        273,
        274,
        275,
        276,
        277,
        278,
        279,
        280,
        281,
        282,
        283,
        284,
        285,
        286,
        287,
        288,
        289,
        290,
        291,
        292,
        293,
        294,
        295,
        296,
        297,
        298,
        299,
        300,
        301,
        302,
        303,
        304,
        305,
        306,
        307,
        308,
        309,
        310,
        311,
        312,
        313,
        314,
        315,
        316,
        317,
        318,
        319,
        320,
        321,
        322,
        323,
        324,
        325,
        326,
        327,
        328,
        329,
        330,
        331,
        332,
        333,
        334,
        335,
        336,
        337,
        338,
        339,
        340,
        341,
        342,
        343,
        344,
        345,
        346,
        347,
        348,
        349,
        350,
        351,
        352,
        353,
        354,
        355,
        356,
        357,
        358,
        359,
        360,
        361,
        362,
        363,
        364,
        365,
        366,
        367,
        368,
        369,
        370,
        371,
        372,
        373,
        374,
        375,
        376,
        377,
        378,
        379,
        380,
        381,
        382,
        383,
        384,
        385,
        386,
        387,
        388,
        389,
        390,
        391,
        392,
        393,
        394,
        395,
        396,
        397,
        398,
        399,
        400,
        401,
        402,
        403,
        404,
        405,
        406,
        407,
        408,
        409,
        410,
        411,
        412,
        413,
        414,
        415,
        416,
        417,
        418,
        419,
        420,
        421,
        422,
        423,
        424,
        425,
        426,
        427,
        428,
        429,
        430,
        431,
        432,
        433,
        434,
        435,
        436,
        437,
        438,
        439,
        440,
        441,
        442,
        443,
        444,
        445,
        446,
        447,
        448,
        449,
        450,
        451,
        452,
        453,
        454,
        455,
        456,
        457,
        458,
        459,
        460,
        461,
        462,
        463,
        464,
        465,
        466,
        467,
        468,
        469,
        470,
        471,
        472,
        473,
        474,
        475,
        476,
        477,
        478,
        479,
        480,
        481,
        482,
        483,
        484,
        485,
        486,
        487,
        488,
        489,
        490,
        491,
        492,
        493,
        494,
        495,
        496,
        497,
        498,
        499,
        500,
        501,
        502,
        503,
        504,
        505,
        506,
        507,
        508,
        509,
        510,
        511,
        512,
        513,
        514,
        515,
        516,
        517,
        518,
        519,
        520,
        521,
        522,
        523,
        524,
        525,
        526,
        527,
        528,
        529,
        530,
        531,
        532,
        533,
        534,
        535,
        536,
        537,
        538,
        539,
        540,
        541,
        542,
        543,
        544,
        545,
        546,
        547,
        548,
        549,
        550,
        551,
        552,
        553,
        554,
        555,
        556,
        557,
        558,
        559,
        560,
        561,
        562,
        563,
        564,
        565,
        566,
        567,
        568,
        569,
        570,
        571,
        572,
        573,
        574,
        575,
        576,
        577,
        578,
        579,
        580,
        581,
        582,
        583,
        584,
        585,
        586,
        587,
        588,
        589,
        590,
        591,
        592,
        593,
        594,
        595,
        596,
        597,
        598,
        599,
        600
      ],
      "AcquisitionTime": [
        "085858.152500",
        "085858.952500",
        "085859.752500",
        "085900.552500",
        "085901.352500",
        "085902.152500",
        "085902.952500",
        "085903.752500",
        "085904.552500",
        "085905.352500",
        "085906.152500",
        "085906.952500",
        "085907.752500",
        "085908.552500",
        "085909.352500",
        "085910.152500",
        "085910.952500",
        "085911.752500",
        "085912.552500",
        "085913.352500",
        "085914.152500",
        "085914.952500",
        "085915.752500",
        "085916.552500",
        "085917.352500",
        "085918.152500",
        "085918.952500",
        "085919.752500",
        "085920.552500",
        "085921.352500",
        "085922.152500",
        "085922.952500",
        "085923.752500",
        "085924.552500",
        "085925.352500",
        "085926.152500",
        "085926.952500",
        "085927.752500",
        "085928.552500",
        "085929.352500",
        "085930.152500",
        "085930.952500",
        "085931.752500",
        "085932.552500",
        "085933.352500",
        "085934.152500",
        "085934.952500",
        "085935.752500",
        "085936.552500",
        "085937.352500",
        "085938.152500",
        "085938.952500",
        "085939.752500",
        "085940.552500",
        "085941.352500",
        "085942.152500",
        "085942.952500",
        "085943.752500",
        "085944.552500",
        "085945.352500",
        "085946.152500",
        "085946.952500",
        "085947.752500",
        "085948.552500",
        "085949.352500",
        "085950.152500",
        "085950.952500",
        "085951.752500",
        "085952.552500",
        "085953.352500",
        "085954.152500",
        "085954.952500",
        "085955.752500",
        "085956.552500",
        "085957.352500",
        "085958.152500",
        "085958.952500",
        "085959.752500",
        "090000.552500",
        "090001.352500",
        "090002.152500",
        "090002.952500",
        "090003.752500",
        "090004.552500",
        "090005.352500",
        "090006.152500",
        "090006.952500",
        "090007.752500",
        "090008.552500",
        "090009.352500",
        "090010.152500",
        "090010.952500",
        "090011.752500",
        "090012.552500",
        "090013.352500",
        "090014.152500",
        "090014.952500",
        "090015.752500",
        "090016.552500",
        "090017.352500",
        "090018.152500",
        "090018.952500",
        "090019.752500",
        "090020.552500",
        "090021.352500",
        "090022.152500",
        "090022.952500",
        "090023.752500",
        "090024.552500",
        "090025.352500",
        "090026.152500",
        "090026.952500",
        "090027.752500",
        "090028.552500",
        "090029.352500",
        "090030.152500",
        "090030.952500",
        "090031.752500",
        "090032.552500",
        "090033.352500",
        "090034.152500",
        "090034.952500",
        "090035.752500",
        "090036.552500",
        "090037.352500",
        "090038.152500",
        "090038.952500",
        "090039.752500",
        "090040.552500",
        "090041.352500",
        "090042.152500",
        "090042.952500",
        "090043.752500",
        "090044.552500",
        "090045.352500",
        "090046.152500",
        "090046.952500",
        "090047.752500",
        "090048.552500",
        "090049.352500",
        "090050.152500",
        "090050.952500",
        "090051.752500",
        "090052.552500",
        "090053.352500",
        "090054.152500",
        "090054.952500",
        "090055.752500",
        "090056.552500",
        "090057.352500",
        "090058.152500",
        "090058.952500",
        "090059.752500",
        "090100.552500",
        "090101.352500",
        "090102.152500",
        "090102.952500",
        "090103.752500",
        "090104.552500",
        "090105.352500",
        "090106.152500",
        "090106.952500",
        "090107.752500",
        "090108.552500",
        "090109.352500",
        "090110.152500",
        "090110.952500",
        "090111.752500",
        "090112.552500",
        "090113.352500",
        "090114.152500",
        "090114.952500",
        "090115.752500",
        "090116.552500",
        "090117.352500",
        "090118.152500",
        "090118.952500",
        "090119.752500",
        "090120.552500",
        "090121.352500",
        "090122.152500",
        "090122.952500",
        "090123.752500",
        "090124.552500",
        "090125.352500",
        "090126.152500",
        "090126.952500",
        "090127.752500",
        "090128.552500",
        "090129.352500",
        "090130.152500",
        "090130.952500",
        "090131.752500",
        "090132.552500",
        "090133.352500",
        "090134.152500",
        "090134.952500",
        "090135.752500",
        "090136.552500",
        "090137.352500",
        "090138.152500",
        "090138.952500",
        "090139.752500",
        "090140.552500",
        "090141.352500",
        "090142.152500",
        "090142.952500",
        "090143.752500",
        "090144.552500",
        "090145.352500",
        "090146.152500",
        "090146.952500",
        "090147.752500",
        "090148.552500",
        "090149.352500",
        "090150.152500",
        "090150.952500",
        "090151.752500",
        "090152.552500",
        "090153.352500",
        "090154.152500",
        "090154.952500",
        "090155.752500",
        "090156.552500",
        "090157.352500",
        "090158.152500",
        "090158.952500",
        "090159.752500",
        "090200.552500",
        "090201.352500",
        "090202.152500",
        "090202.952500",
        "090203.752500",
        "090204.552500",
        "090205.352500",
        "090206.152500",
        "090206.952500",
        "090207.752500",
        "090208.552500",
        "090209.352500",
        "090210.152500",
        "090210.952500",
        "090211.752500",
        "090212.552500",
        "090213.352500",
        "090214.152500",
        "090214.952500",
        "090215.752500",
        "090216.552500",
        "090217.352500",
        "090218.152500",
        "090218.952500",
        "090219.752500",
        "090220.552500",
        "090221.352500",
        "090222.152500",
        "090222.952500",
        "090223.752500",
        "090224.552500",
        "090225.352500",
        "090226.152500",
        "090226.952500",
        "090227.752500",
        "090228.552500",
        "090229.352500",
        "090230.152500",
        "090230.952500",
        "090231.752500",
        "090232.552500",
        "090233.352500",
        "090234.152500",
        "090234.952500",
        "090235.752500",
        "090236.552500",
        "090237.352500",
        "090238.152500",
        "090238.952500",
        "090239.752500",
        "090240.552500",
        "090241.352500",
        "090242.152500",
        "090242.952500",
        "090243.752500",
        "090244.552500",
        "090245.352500",
        "090246.152500",
        "090246.952500",
        "090247.752500",
        "090248.552500",
        "090249.352500",
        "090250.152500",
        "090250.952500",
        "090251.752500",
        "090252.552500",
        "090253.352500",
        "090254.152500",
        "090254.952500",
        "090255.752500",
        "090256.552500",
        "090257.352500",
        "090258.152500",
        "090258.952500",
        "090259.752500",
        "090300.552500",
        "090301.352500",
        "090302.152500",
        "090302.952500",
        "090303.752500",
        "090304.552500",
        "090305.352500",
        "090306.152500",
        "090306.952500",
        "090307.752500",
        "090308.552500",
        "090309.352500",
        "090310.152500",
        "090310.952500",
        "090311.752500",
        "090312.552500",
        "090313.352500",
        "090314.152500",
        "090314.952500",
        "090315.752500",
        "090316.552500",
        "090317.352500",
        "090318.152500",
        "090318.952500",
        "090319.752500",
        "090320.552500",
        "090321.352500",
        "090322.152500",
        "090322.952500",
        "090323.752500",
        "090324.552500",
        "090325.352500",
        "090326.152500",
        "090326.952500",
        "090327.752500",
        "090328.552500",
        "090329.352500",
        "090330.152500",
        "090330.952500",
        "090331.752500",
        "090332.552500",
        "090333.352500",
        "090334.152500",
        "090334.952500",
        "090335.752500",
        "090336.552500",
        "090337.352500",
        "090338.152500",
        "090338.952500",
        "090339.752500",
        "090340.552500",
        "090341.352500",
        "090342.152500",
        "090342.952500",
        "090343.752500",
        "090344.552500",
        "090345.352500",
        "090346.152500",
        "090346.952500",
        "090347.752500",
        "090348.552500",
        "090349.352500",
        "090350.152500",
        "090350.952500",
        "090351.752500",
        "090352.552500",
        "090353.352500",
        "090354.152500",
        "090354.952500",
        "090355.752500",
        "090356.552500",
        "090357.352500",
        "090358.152500",
        "090358.952500",
        "090359.752500",
        "090400.552500",
        "090401.352500",
        "090402.152500",
        "090402.952500",
        "090403.752500",
        "090404.552500",
        "090405.352500",
        "090406.152500",
        "090406.952500",
        "090407.752500",
        "090408.552500",
        "090409.352500",
        "090410.152500",
        "090410.952500",
        "090411.752500",
        "090412.552500",
        "090413.352500",
        "090414.152500",
        "090414.952500",
        "090415.752500",
        "090416.552500",
        "090417.352500",
        "090418.152500",
        "090418.952500",
        "090419.752500",
        "090420.552500",
        "090421.352500",
        "090422.152500",
        "090422.952500",
        "090423.752500",
        "090424.552500",
        "090425.352500",
        "090426.152500",
        "090426.952500",
        "090427.752500",
        "090428.552500",
        "090429.352500",
        "090430.152500",
        "090430.952500",
        "090431.752500",
        "090432.552500",
        "090433.352500",
        "090434.152500",
        "090434.952500",
        "090435.752500",
        "090436.552500",
        "090437.352500",
        "090438.152500",
        "090438.952500",
        "090439.752500",
        "090440.552500",
        "090441.352500",
        "090442.152500",
        "090442.952500",
        "090443.752500",
        "090444.552500",
        "090445.352500",
        "090446.152500",
        "090446.952500",
        "090447.752500",
        "090448.552500",
        "090449.352500",
        "090450.152500",
        "090450.952500",
        "090451.752500",
        "090452.552500",
        "090453.352500",
        "090454.152500",
        "090454.952500",
        "090455.752500",
        "090456.552500",
        "090457.352500",
        "090458.152500",
        "090458.952500",
        "090459.752500",
        "090500.552500",
        "090501.352500",
        "090502.152500",
        "090502.952500",
        "090503.752500",
        "090504.552500",
        "090505.352500",
        "090506.152500",
        "090506.952500",
        "090507.752500",
        "090508.552500",
        "090509.352500",
        "090510.152500",
        "090510.952500",
        "090511.752500",
        "090512.552500",
        "090513.352500",
        "090514.152500",
        "090514.952500",
        "090515.752500",
        "090516.552500",
        "090517.352500",
        "090518.152500",
        "090518.952500",
        "090519.752500",
        "090520.552500",
        "090521.352500",
        "090522.152500",
        "090522.952500",
        "090523.752500",
        "090524.552500",
        "090525.352500",
        "090526.152500",
        "090526.952500",
        "090527.752500",
        "090528.552500",
        "090529.352500",
        "090530.152500",
        "090530.952500",
        "090531.752500",
        "090532.552500",
        "090533.352500",
        "090534.152500",
        "090534.952500",
        "090535.752500",
        "090536.552500",
        "090537.352500",
        "090538.152500",
        "090538.952500",
        "090539.752500",
        "090540.552500",
        "090541.352500",
        "090542.152500",
        "090542.952500",
        "090543.752500",
        "090544.552500",
        "090545.352500",
        "090546.152500",
        "090546.952500",
        "090547.752500",
        "090548.552500",
        "090549.352500",
        "090550.152500",
        "090550.952500",
        "090551.752500",
        "090552.552500",
        "090553.352500",
        "090554.152500",
        "090554.952500",
        "090555.752500",
        "090556.552500",
        "090557.352500",
        "090558.152500",
        "090558.952500",
        "090559.752500",
        "090600.552500",
        "090601.352500",
        "090602.152500",
        "090602.952500",
        "090603.752500",
        "090604.552500",
        "090605.352500",
        "090606.152500",
        "090606.952500",
        "090607.752500",
        "090608.552500",
        "090609.352500",
        "090610.152500",
        "090610.952500",
        "090611.752500",
        "090612.552500",
        "090613.352500",
        "090614.152500",
        "090614.952500",
        "090615.752500",
        "090616.552500",
        "090617.352500",
        "090618.152500",
        "090618.952500",
        "090619.752500",
        "090620.552500",
        "090621.352500",
        "090622.152500",
        "090622.952500",
        "090623.752500",
        "090624.552500",
        "090625.352500",
        "090626.152500",
        "090626.952500",
        "090627.752500",
        "090628.552500",
        "090629.352500",
        "090630.152500",
        "090630.952500",
        "090631.752500",
        "090632.552500",
        "090633.352500",
        "090634.152500",
        "090634.952500",
        "090635.752500",
        "090636.552500",
        "090637.352500",
        "090638.152500",
        "090638.952500",
        "090639.752500",
        "090640.552500",
        "090641.352500",
        "090642.152500",
        "090642.952500",
        "090643.752500",
        "090644.552500",
        "090645.352500",
        "090646.152500",
        "090646.952500",
        "090647.752500",
        "090648.552500",
        "090649.352500",
        "090650.152500",
        "090650.952500",
        "090651.752500",
        "090652.552500",
        "090653.352500",
        "090654.152500",
        "090654.952500",
        "090655.752500",
        "090656.552500",
        "090657.352500"
      ],
      "ContentTime": [
        "085944.886000",
        "085944.892000",
        "085944.895000",
        "085944.905000",
        "085944.908000",
        "085944.911000",
        "085944.914000",
        "085944.917000",
        "085944.920000",
        "085944.924000",
        "085944.927000",
        "085944.932000",
        "085944.935000",
        "085944.938000",
        "085944.941000",
        "085944.948000",
        "085944.951000",
        "085944.954000",
        "085944.957000",
        "085944.960000",
        "085944.963000",
        "085944.966000",
        "085944.969000",
        "085944.972000",
        "085944.975000",
        "085944.978000",
        "085944.981000",
        "085944.984000",
        "085944.987000",
        "085944.989000",
        "085944.992000",
        "085944.995000",
        "085944.998000",
        "085945.002000",
        "085945.005000",
        "085945.008000",
        "085945.011000",
        "085945.014000",
        "085945.017000",
        "085945.020000",
        "085945.023000",
        "085945.025000",
        "085945.028000",
        "085945.031000",
        "090004.855000",
        "090004.859000",
        "090004.862000",
        "090004.865000",
        "090004.868000",
        "090004.871000",
        "090004.874000",
        "090004.877000",
        "090004.880000",
        "090004.884000",
        "090004.887000",
        "090004.890000",
        "090004.894000",
        "090004.897000",
        "090004.899000",
        "090004.902000",
        "090004.906000",
        "090004.908000",
        "090004.911000",
        "090004.914000",
        "090004.917000",
        "090004.920000",
        "090004.923000",
        "090004.926000",
        "090004.929000",
        "090004.932000",
        "090004.935000",
        "090004.938000",
        "090004.941000",
        "090004.944000",
        "090004.947000",
        "090004.950000",
        "090004.954000",
        "090004.957000",
        "090004.960000",
        "090004.963000",
        "090004.966000",
        "090004.969000",
        "090024.846000",
        "090024.849000",
        "090024.852000",
        "090024.855000",
        "090024.861000",
        "090024.864000",
        "090024.867000",
        "090024.870000",
        "090024.873000",
        "090024.876000",
        "090024.879000",
        "090024.883000",
        "090024.886000",
        "090024.889000",
        "090024.892000",
        "090024.895000",
        "090024.898000",
        "090024.901000",
        "090024.904000",
        "090024.907000",
        "090024.910000",
        "090024.913000",
        "090024.916000",
        "090024.919000",
        "090024.922000",
        "090044.846000",
        "090044.849000",
        "090044.852000",
        "090044.855000",
        "090044.858000",
        "090044.861000",
        "090044.864000",
        "090044.873000",
        "090044.876000",
        "090044.879000",
        "090044.883000",
        "090044.887000",
        "090044.889000",
        "090044.893000",
