{
  "AcquisitionMatrixPE": 140,
  "AcquisitionNumber": 1,
  "AcquisitionTime": "15:49:26.962500",
  "BandwidthPerPixelPhaseEncode": 10.352,
  "BaseResolution": 140,
  "BodyPartExamined": "BRAIN",
  "CoilCombinationMethod": "Sum of Squares",
  "ConsistencyInfo": "N4_VE11C_LATEST_20160120",
  "ConversionSoftware": "dcm2niix",
  "ConversionSoftwareVersion": "v1.0.20220720",
  "DerivedVendorReportedEchoSpacing": 0.000689998,
  "DeviceSerialNumber": "67026",
  "DiffusionScheme": "Monopolar",
  "DwellTime": 2.1e-06,
  "EchoTime": 0.0892,
  "EchoTrainLength": 105,
  "EffectiveEchoSpacing": 0.000689998,
  "FlipAngle": 78,
  "HeudiconvVersion": "0.11.4",
  "ImageComments": "Unaliased MB4/PE3/LB SENSE1",
  "ImageOrientationPatientDICOM": [
    0.999421,
    -0.00780421,
    -0.0331171,
    -0.00540744,
    0.924535,
    -0.381059
  ],
  "ImageOrientationText": "Tra>Cor(-22.4)>Sag(-1.9)",
  "ImageType": [
    "ORIGINAL",
    "PRIMARY",
    "DIFFUSION",
    "NONE",
    "MB",
    "ND",
    "MOSAIC"
  ],
  "ImagingFrequency": 123.182,
  "InPlanePhaseEncodingDirectionDICOM": "COL",
  "InstitutionAddress": "13th St. 149,Charlestown,MA,US,02129",
  "InstitutionName": "Martinos Center Bay 4 Prisma",
  "InstitutionalDepartmentName": "Martinos Center",
  "MRAcquisitionType": "2D",
  "MagneticFieldStrength": 3,
  "Manufacturer": "Siemens",
  "ManufacturersModelName": "Prisma_fit",
  "MatrixCoilMode": "SENSE",
  "Modality": "MR",
  "MultibandAccelerationFactor": 4,
  "NonlinearGradientCorrection": false,
  "PartialFourier": 0.75,
  "PatientPosition": "HFS",
  "PercentPhaseFOV": 100,
  "PercentSampling": 100,
  "PhaseEncodingDirection": "j-",
  "PhaseEncodingSteps": 105,
  "PhaseResolution": 1,
  "PixelBandwidth": 1700,
  "ProcedureStepDescription": "INVESTIGATORS^Greve",
  "ProtocolName": "dMRI_dir98_AP",
  "PulseSequenceDetails": "%CustomerSeq%\\hcp_mbep2d_diff",
  "ReceiveCoilActiveElements": "HEA;HEP",
  "ReceiveCoilName": "Head_32",
  "ReconMatrixPE": 140,
  "RepetitionTime": 3.23,
  "SAR": 0.145657,
  "ScanOptions": "PFP\\EXT",
  "ScanningSequence": "EP",
  "SequenceName": "ep_b5#1",
  "SequenceVariant": "SK\\SS",
  "SeriesDescription": "dMRI_dir98_AP",
  "SeriesNumber": 37,
  "ShimSetting": [
    -1216,
    -10551,
    -10186,
    341,
    137,
    -104,
    -170,
    -3
  ],
  "SliceThickness": 1.5,
  "SliceTiming": [
    0,
    1.675,
    0.14,
    1.815,
    0.28,
    1.955,
    0.42,
    2.095,
    0.5575,
    2.2325,
    0.6975,
    2.3725,
    0.8375,
    2.5125,
    0.9775,
    2.6525,
    1.1175,
    2.7925,
    1.2575,
    2.93,
    1.395,
    3.07,
    1.535,
    0,
    1.675,
    0.14,
    1.815,
    0.28,
    1.955,
    0.42,
    2.095,
    0.5575,
    2.2325,
    0.6975,
    2.3725,
    0.8375,
    2.5125,
    0.9775,
    2.6525,
    1.1175,
    2.7925,
    1.2575,
    2.93,
    1.395,
    3.07,
    1.535,
    0,
    1.675,
    0.14,
    1.815,
    0.28,
    1.955,
    0.42,
    2.095,
    0.5575,
    2.2325,
    0.6975,
    2.3725,
    0.8375,
    2.5125,
    0.9775,
    2.6525,
    1.1175,
    2.7925,
    1.2575,
    2.93,
    1.395,
    3.07,
    1.535,
    0,
    1.675,
    0.14,
    1.815,
    0.28,
    1.955,
    0.42,
    2.095,
    0.5575,
    2.2325,
    0.6975,
    2.3725,
    0.8375,
    2.5125,
    0.9775,
    2.6525,
    1.1175,
    2.7925,
    1.2575,
    2.93,
    1.395,
    3.07,
    1.535
  ],
  "SoftwareVersions": "syngo MR E11",
  "SpacingBetweenSlices": 1.5,
  "StationName": "BAY4OC",
  "TotalReadoutTime": 0.0959097,
  "TxRefAmp": 258.38,
  "WipMemBlock": "020d7bfa-5816-440c-ad04-28f07fe29d5f||Sequence: ve11c/master r/5b0256d+; Dec  9 2016 09:48:43 by eja",
  "dcmmeta_affine": [
    [
      -1.4991315603256226,
      -0.008111157454550266,
      -0.05038764700293541,
      110.80628967285156
    ],
    [
      0.011706308461725712,
      1.386802315711975,
      -0.5715263485908508,
      -56.62538146972656
    ],
    [
      -0.049675632268190384,
      0.5715886950492859,
      1.3859360218048096,
      -108.3531723022461
    ],
    [
      0,
      0,
      0,
      1
    ]
  ],
  "dcmmeta_reorient_transform": [
    [
      0,
      -1,
      0,
      139
    ],
    [
      1,
      0,
      0,
      0
    ],
    [
      0,
      0,
      1,
      0
    ],
    [
      0,
      0,
      0,
      1
    ]
  ],
  "dcmmeta_shape": [
    140,
    140,
    92,
    99
  ],
  "dcmmeta_slice_dim": 2,
  "dcmmeta_version": 0.6,
  "time": {
    "samples": {
      "AcquisitionNumber": [
        1,
        2,
        3,
        4,
        5,
        6,
        7,
        8,
        9,
        10,
        11,
        12,
        13,
        14,
        15,
        16,
        17,
        18,
        19,
        20,
        21,
        22,
        23,
        24,
        25,
        26,
        27,
        28,
        29,
        30,
        31,
        32,
        33,
        34,
        35,
        36,
        37,
        38,
        39,
        40,
        41,
        42,
        43,
        44,
        45,
        46,
        47,
        48,
        49,
        50,
        51,
        52,
        53,
        54,
        55,
        56,
        57,
        58,
        59,
        60,
        61,
        62,
        63,
        64,
        65,
        66,
        67,
        68,
        69,
        70,
        71,
        72,
        73,
        74,
        75,
        76,
        77,
        78,
        79,
        80,
        81,
        82,
        83,
        84,
        85,
        86,
        87,
        88,
        89,
        90,
        91,
        92,
        93,
        94,
        95,
        96,
        97,
        98,
        99
      ],
      "AcquisitionTime": [
        "154926.962500",
        "154930.192500",
        "154933.422500",
        "154936.652500",
        "154939.882500",
        "154943.112500",
        "154946.342500",
        "154949.572500",
        "154952.802500",
        "154956.032500",
        "154959.262500",
        "155002.492500",
        "155005.722500",
        "155008.952500",
        "155012.182500",
        "155015.412500",
        "155018.642500",
        "155021.872500",
        "155025.102500",
        "155028.332500",
        "155031.562500",
        "155034.792500",
        "155038.022500",
        "155041.252500",
        "155044.482500",
        "155047.712500",
        "155050.942500",
        "155054.172500",
        "155057.402500",
        "155100.632500",
        "155103.862500",
        "155107.092500",
        "155110.322500",
        "155113.552500",
        "155116.782500",
        "155120.012500",
        "155123.242500",
        "155126.472500",
        "155129.702500",
        "155132.932500",
        "155136.162500",
        "155139.392500",
        "155142.622500",
        "155145.852500",
        "155149.082500",
        "155152.312500",
        "155155.542500",
        "155158.772500",
        "155202.002500",
        "155205.232500",
        "155208.462500",
        "155211.692500",
        "155214.922500",
        "155218.152500",
        "155221.382500",
        "155224.612500",
        "155227.842500",
        "155231.072500",
        "155234.302500",
        "155237.532500",
        "155240.762500",
        "155243.992500",
        "155247.222500",
        "155250.452500",
        "155253.682500",
        "155256.912500",
        "155300.142500",
        "155303.372500",
        "155306.602500",
        "155309.832500",
        "155313.062500",
        "155316.292500",
        "155319.522500",
        "155322.752500",
        "155325.982500",
        "155329.212500",
        "155332.442500",
        "155335.672500",
        "155338.902500",
        "155342.132500",
        "155345.362500",
        "155348.592500",
        "155351.822500",
        "155355.052500",
        "155358.282500",
        "155401.512500",
        "155404.742500",
        "155407.972500",
        "155411.202500",
        "155414.432500",
        "155417.662500",
        "155420.892500",
        "155424.122500",
        "155427.352500",
        "155430.582500",
        "155433.812500",
        "155437.042500",
        "155440.272500",
        "155443.502500"
      ],
      "ContentTime": [
        "155039.998000",
        "155040.003000",
        "155040.007000",
        "155040.011000",
        "155040.014000",
        "155040.017000",
        "155040.021000",
        "155040.024000",
        "155040.028000",
        "155040.031000",
        "155040.035000",
        "155040.041000",
        "155040.044000",
        "155040.047000",
        "155040.051000",
        "155040.054000",
        "155040.058000",
        "155040.061000",
        "155040.065000",
        "155040.068000",
        "155040.071000",
        "155040.075000",
        "155139.964000",
        "155139.967000",
        "155139.974000",
        "155139.985000",
        "155139.988000",
        "155139.991000",
        "155139.995000",
        "155139.998000",
        "155140.003000",
        "155140.006000",
        "155140.009000",
        "155140.013000",
        "155140.016000",
        "155140.020000",
        "155140.023000",
        "155140.026000",
        "155140.030000",
        "155140.033000",
        "155259.963000",
        "155259.967000",
        "155259.970000",
        "155259.978000",
        "155259.981000",
        "155259.985000",
        "155259.988000",
        "155259.992000",
        "155259.995000",
        "155259.998000",
        "155300.003000",
        "155300.006000",
        "155300.010000",
        "155300.013000",
        "155300.016000",
        "155300.026000",
        "155300.029000",
        "155300.033000",
        "155300.037000",
        "155300.040000",
        "155300.044000",
        "155300.047000",
        "155300.050000",
        "155300.054000",
        "155300.057000",
        "155419.964000",
        "155419.967000",
        "155419.971000",
        "155419.974000",
        "155419.985000",
        "155419.988000",
        "155419.991000",
        "155419.995000",
        "155419.998000",
        "155420.009000",
        "155420.012000",
        "155420.016000",
        "155420.019000",
        "155420.023000",
        "155420.026000",
        "155420.029000",
        "155420.033000",
        "155420.036000",
        "155420.040000",
        "155420.043000",
        "155420.047000",
        "155420.050000",
        "155420.054000",
        "155420.057000",
        "155420.061000",
        "155447.496000",
        "155447.500000",
        "155447.504000",
        "155447.508000",
        "155447.511000",
        "155447.516000",
        "155447.521000",
        "155447.530000",
        "155447.534000"
      ],
      "InstanceCreationTime": [
        "155039.998000",
        "155040.003000",
        "155040.007000",
        "155040.011000",
        "155040.014000",
        "155040.017000",
        "155040.021000",
        "155040.024000",
        "155040.028000",
        "155040.031000",
        "155040.035000",
        "155040.041000",
        "155040.044000",
        "155040.047000",
        "155040.051000",
        "155040.054000",
        "155040.058000",
        "155040.061000",
        "155040.065000",
        "155040.068000",
        "155040.071000",
        "155040.075000",
        "155139.964000",
        "155139.967000",
        "155139.974000",
        "155139.985000",
        "155139.988000",
        "155139.991000",
        "155139.995000",
        "155139.998000",
        "155140.003000",
        "155140.006000",
        "155140.009000",
        "155140.013000",
        "155140.016000",
        "155140.020000",
        "155140.023000",
        "155140.026000",
        "155140.030000",
        "155140.033000",
        "155259.963000",
        "155259.967000",
        "155259.970000",
        "155259.978000",
        "155259.981000",
        "155259.985000",
        "155259.988000",
        "155259.992000",
        "155259.995000",
        "155259.998000",
        "155300.003000",
        "155300.006000",
        "155300.010000",
        "155300.013000",
        "155300.016000",
        "155300.026000",
        "155300.029000",
        "155300.033000",
        "155300.037000",
        "155300.040000",
        "155300.044000",
        "155300.047000",
        "155300.050000",
        "155300.054000",
        "155300.057000",
        "155419.964000",
        "155419.967000",
        "155419.971000",
        "155419.974000",
        "155419.985000",
        "155419.988000",
        "155419.991000",
        "155419.995000",
        "155419.998000",
        "155420.009000",
        "155420.012000",
        "155420.016000",
        "155420.019000",
        "155420.023000",
        "155420.026000",
        "155420.029000",
        "155420.033000",
        "155420.036000",
        "155420.040000",
        "155420.043000",
        "155420.047000",
        "155420.050000",
        "155420.054000",
        "155420.057000",
        "155420.061000",
        "155447.496000",
        "155447.500000",
        "155447.504000",
        "155447.508000",
        "155447.511000",
        "155447.516000",
        "155447.521000",
        "155447.530000",
        "155447.534000"
      ],
      "InstanceNumber": [
        1,
        2,
        3,
        4,
        5,
        6,
        7,
        8,
        9,
        10,
        11,
        12,
        13,
        14,
        15,
        16,
        17,
        18,
        19,
        20,
        21,
        22,
        23,
        24,
        25,
        26,
        27,
        28,
        29,
        30,
        31,
        32,
        33,
        34,
        35,
        36,
        37,
        38,
        39,
        40,
        41,
        42,
        43,
        44,
        45,
        46,
        47,
        48,
        49,
        50,
        51,
        52,
        53,
        54,
        55,
        56,
        57,
        58,
        59,
        60,
        61,
        62,
        63,
        64,
        65,
        66,
        67,
        68,
        69,
        70,
        71,
        72,
        73,
        74,
        75,
        76,
        77,
        78,
        79,
        80,
        81,
        82,
        83,
        84,
        85,
        86,
        87,
        88,
        89,
        90,
        91,
        92,
        93,
        94,
        95,
        96,
        97,
        98,
        99
      ],
      "LargestImagePixelValue": [
        23375,
        26742,
        4477,
        2278,
        4517,
        2026,
        4127,
        2231,
        4720,
        2253,
        4522,
        2189,
        4388,
        2451,
        4362,
        2377,
        4415,
        27973,
        2335,
        4032,
        1920,
        3953,
        2359,
        4342,
        1959,
        4026,
        2179,
        4331,
        2161,
        3926,
        2447,
        4724,
        1970,
        26822,
        4283,
        2006,
        4274,
        2331,
        4040,
        2177,
        4534,
        1994,
        4725,
        2059,
        4627,
        2178,
        4136,
        2858,
        4363,
        30399,
        2502,
        4222,
        2083,
        4381,
        2647,
        4354,
        1983,
        4181,
        2024,
        4507,
        2491,
        4165,
        2188,
        4144,
        2235,
        29009,
        4672,
        2510,
        4209,
        2033,
        4285,
        2680,
        4475,
        2430,
        4512,
        2137,
        4414,
        2071,
        3867,
        2055,
        4387,
        28888,
        2009,
        4887,
        2287,
        4406,
        2387,
        4386,
        2028,
        4520,
        2147,
        4269,
        2071,
        4238,
        2869,
        4369,
        2512,
        4143,
        1921
      ],
      "SequenceName": [
        "ep_b5#1",
        "ep_b5#1",
        "ep_b1490#2",
        "ep_b2990#3",
        "ep_b1495#4",
        "ep_b3005#5",
        "ep_b1500#6",
        "ep_b2985#7",
        "ep_b1495#8",
        "ep_b3005#9",
        "ep_b1490#10",
        "ep_b2995#11",
        "ep_b1490#12",
        "ep_b2990#13",
        "ep_b1500#14",
        "ep_b2985#15",
        "ep_b1500#16",
        "ep_b5#17",
        "ep_b3005#18",
        "ep_b1490#19",
        "ep_b3000#20",
        "ep_b1495#21",
        "ep_b3000#22",
        "ep_b1495#23",
        "ep_b3000#24",
        "ep_b1490#25",
        "ep_b2980#26",
        "ep_b1505#27",
        "ep_b2990#28",
        "ep_b1495#29",
        "ep_b3000#30",
        "ep_b1490#31",
        "ep_b3000#32",
        "ep_b5#33",
        "ep_b1505#34",
        "ep_b3000#35",
        "ep_b1490#36",
        "ep_b2980#37",
        "ep_b1495#38",
        "ep_b2995#39",
        "ep_b1500#40",
        "ep_b2995#41",
        "ep_b1505#42",
        "ep_b2990#43",
        "ep_b1495#44",
        "ep_b3000#45",
        "ep_b1495#46",
        "ep_b3000#47",
        "ep_b1490#48",
        "ep_b5#49",
        "ep_b3005#50",
        "ep_b1495#51",
        "ep_b2990#52",
        "ep_b1505#53",
        "ep_b2995#54",
        "ep_b1490#55",
        "ep_b2990#56",
        "ep_b1490#57",
        "ep_b3000#58",
        "ep_b1500#59",
        "ep_b3000#60",
        "ep_b1505#61",
        "ep_b2985#62",
        "ep_b1500#63",
        "ep_b2990#64",
        "ep_b5#65",
        "ep_b1505#66",
        "ep_b3005#67",
        "ep_b1495#68",
        "ep_b3000#69",
        "ep_b1505#70",
        "ep_b3005#71",
        "ep_b1500#72",
        "ep_b3005#73",
        "ep_b1490#74",
        "ep_b2995#75",
        "ep_b1490#76",
        "ep_b2995#77",
        "ep_b1500#78",
        "ep_b3000#79",
        "ep_b1490#80",
        "ep_b5#81",
        "ep_b2990#82",
        "ep_b1500#83",
        "ep_b2985#84",
        "ep_b1490#85",
        "ep_b2995#86",
        "ep_b1495#87",
        "ep_b2990#88",
        "ep_b1490#89",
        "ep_b2980#90",
        "ep_b1500#91",
        "ep_b3000#92",
        "ep_b1495#93",
        "ep_b3005#94",
        "ep_b1500#95",
        "ep_b2990#96",
        "ep_b1500#97",
        "ep_b3000#98"
      ],
      "TriggerTime": [
        18780,
        22010,
        25240,
        28470,
        31700,
        34930,
        38160,
        41390,
        44620,
        47850,
        51080,
        54310,
        57540,
        60770,
        64000,
        67230,
        70460,
        73690,
        76920,
        80150,
        83380,
        86610,
        89840,
        93070,
        96300,
        99530,
        102760,
        105990,
        109220,
        112450,
        115680,
        118910,
        122140,
        125370,
        128600,
        131830,
        135060,
        138290,
        141520,
        144750,
        147980,
        151210,
        154440,
        157670,
        160900,
        164130,
        167360,
        170590,
        173820,
        177050,
        180280,
        183510,
        186740,
        189970,
        193200,
        196430,
        199660,
        202890,
        206120,
        209350,
        212580,
        215810,
        219040,
        222270,
        225500,
        228730,
        231960,
        235190,
        238420,
        241650,
        244880,
        248110,
        251340,
        254570,
        257800,
        261030,
        264260,
        267490,
        270720,
        273950,
        277180,
        280410,
        283640,
        286870,
        290100,
        293330,
        296560,
        299790,
        303020,
        306250,
        309480,
        312710,
        315940,
        319170,
        322400,
        325630,
        328860,
        332090,
        335320
      ],
      "WindowCenter": [
        4103,
        4194,
        1286,
        758,
        1304,
        722,
        1290,
        742,
        1297,
        754,
        1274,
        765,
        1320,
        775,
        1287,
        747,
        1274,
        4191,
        758,
        1290,
        722,
        1278,
        747,
        1272,
        730,
        1273,
        755,
        1303,
        742,
        1264,
        768,
        1286,
        723,
        4194,
        1290,
        705,
        1260,
        754,
        1289,
        769,
        1303,
        704,
        1300,
        724,
        1287,
        741,
        1273,
        797,
        1288,
        4247,
        784,
        1292,
        748,
        1274,
        769,
        1270,
        724,
        1270,
        718,
        1269,
        768,
        1260,
        741,
        1306,
        749,
        4203,
        1301,
        786,
        1259,
        723,
        1275,
        774,
        1270,
        766,
        1269,
        742,
        1273,
        729,
        1278,
        719,
        1285,
        4195,
        718,
        1284,
        738,
        1288,
        742,
        1267,
        723,
        1256,
        740,
        1257,
        723,
        1291,
        780,
        1267,
        767,
        1258,
        720
      ],
      "WindowWidth": [
        9437,
        9587,
        3363,
        2089,
        3408,
        2002,
        3379,
        2049,
        3383,
        2074,
        3339,
        2115,
        3448,
        2138,
        3369,
        2068,
        3342,
        9581,
        2092,
        3380,
        2002,
        3354,
        2066,
        3333,
        2033,
        3334,
        2078,
        3402,
        2049,
        3324,
        2114,
        3365,
        2007,
        9592,
        3377,
        1956,
        3310,
        2078,
        3374,
        2131,
        3403,
        1954,
        3394,
        2011,
        3368,
        2044,
        3336,
        2187,
        3373,
        9646,
        2153,
        3387,
        2071,
        3341,
        2118,
        3324,
        2012,
        3329,
        1990,
        3325,
        2114,
        3314,
        2044,
        3416,
        2074,
        9572,
        3397,
        2162,
        3308,
        2006,
        3345,
        2132,
        3328,
        2105,
        3321,
        2049,
        3338,
        2029,
        3355,
        1993,
        3359,
        9569,
        1989,
        3358,
        2035,
        3371,
        2049,
        3314,
        2008,
        3295,
        2043,
        3300,
        2010,
        3387,
        2140,
        3316,
        2111,
        3304,
        1997
      ]
    },
    "slices": {}
  }
}
