{
  "AcquisitionMatrixPE": 140,
  "AcquisitionNumber": 1,
  "AcquisitionTime": "18:52:48.232500",
  "BandwidthPerPixelPhaseEncode": 10.352,
  "BaseResolution": 140,
  "BodyPartExamined": "BRAIN",
  "CoilCombinationMethod": "Sum of Squares",
  "ConsistencyInfo": "N4_VE11C_LATEST_20160120",
  "ConversionSoftware": "dcm2niix",
  "ConversionSoftwareVersion": "v1.0.20220720",
  "DerivedVendorReportedEchoSpacing": 0.000689998,
  "DeviceSerialNumber": "67026",
  "DiffusionScheme": "Monopolar",
  "DwellTime": 2.1e-06,
  "EchoTime": 0.0892,
  "EchoTrainLength": 105,
  "EffectiveEchoSpacing": 0.000689998,
  "FlipAngle": 78,
  "HeudiconvVersion": "0.11.4",
  "ImageComments": "Unaliased MB4/PE3/LB SENSE1",
  "ImageOrientationPatientDICOM": [
    0.999747,
    0.0218993,
    0.00513104,
    -0.016927,
    0.882763,
    -0.469514
  ],
  "ImageOrientationText": "Tra>Cor(-28.0)>Sag(0.8)",
  "ImageType": [
    "ORIGINAL",
    "PRIMARY",
    "DIFFUSION",
    "NONE",
    "MB",
    "ND",
    "MOSAIC"
  ],
  "ImagingFrequency": 123.205,
  "InPlanePhaseEncodingDirectionDICOM": "COL",
  "InstitutionAddress": "13th St. 149,Charlestown,MA,US,02129",
  "InstitutionName": "Martinos Center Bay 4 Prisma VE11C",
  "InstitutionalDepartmentName": "Martinos Center",
  "MRAcquisitionType": "2D",
  "MagneticFieldStrength": 3,
  "Manufacturer": "Siemens",
  "ManufacturersModelName": "Prisma_fit",
  "MatrixCoilMode": "SENSE",
  "Modality": "MR",
  "MultibandAccelerationFactor": 4,
  "NonlinearGradientCorrection": false,
  "PartialFourier": 0.75,
  "PatientPosition": "HFS",
  "PercentPhaseFOV": 100,
  "PercentSampling": 100,
  "PhaseEncodingDirection": "j-",
  "PhaseEncodingSteps": 105,
  "PhaseResolution": 1,
  "PixelBandwidth": 1700,
  "ProcedureStepDescription": "INVESTIGATORS^Greve",
  "ProtocolName": "dMRI_dir98_AP_Blue_Umbrella",
  "PulseSequenceDetails": "%CustomerSeq%\\hcp_mbep2d_diff",
  "ReceiveCoilActiveElements": "HEA;HEP",
  "ReceiveCoilName": "Head_32",
  "ReconMatrixPE": 140,
  "RepetitionTime": 3.23,
  "SAR": 0.199162,
  "ScanOptions": "PFP\\EXT",
  "ScanningSequence": "EP",
  "SequenceName": "ep_b5#1",
  "SequenceVariant": "SK\\SS",
  "SeriesDescription": "dMRI_dir98_AP_Blue_Umbrella",
  "SeriesNumber": 44,
  "ShimSetting": [
    -1207,
    -10500,
    -10179,
    414,
    240,
    204,
    -77,
    7
  ],
  "SliceThickness": 1.5,
  "SliceTiming": [
    0,
    1.675,
    0.14,
    1.815,
    0.28,
    1.955,
    0.42,
    2.0925,
    0.5575,
    2.2325,
    0.6975,
    2.3725,
    0.8375,
    2.5125,
    0.9775,
    2.6525,
    1.1175,
    2.7925,
    1.2575,
    2.93,
    1.395,
    3.07,
    1.535,
    0,
    1.675,
    0.14,
    1.815,
    0.28,
    1.955,
    0.42,
    2.0925,
    0.5575,
    2.2325,
    0.6975,
    2.3725,
    0.8375,
    2.5125,
    0.9775,
    2.6525,
    1.1175,
    2.7925,
    1.2575,
    2.93,
    1.395,
    3.07,
    1.535,
    0,
    1.675,
    0.14,
    1.815,
    0.28,
    1.955,
    0.42,
    2.0925,
    0.5575,
    2.2325,
    0.6975,
    2.3725,
    0.8375,
    2.5125,
    0.9775,
    2.6525,
    1.1175,
    2.7925,
    1.2575,
    2.93,
    1.395,
    3.07,
    1.535,
    0,
    1.675,
    0.14,
    1.815,
    0.28,
    1.955,
    0.42,
    2.0925,
    0.5575,
    2.2325,
    0.6975,
    2.3725,
    0.8375,
    2.5125,
    0.9775,
    2.6525,
    1.1175,
    2.7925,
    1.2575,
    2.93,
    1.395,
    3.07,
    1.535
  ],
  "SoftwareVersions": "syngo MR E11",
  "SpacingBetweenSlices": 1.5,
  "StationName": "BAY4OC",
  "TotalReadoutTime": 0.0959097,
  "TxRefAmp": 268.641,
  "WipMemBlock": "c6355621-1fca-4e03-b85d-4dda58474172||Sequence: ve11c/master r/5b0256d+; Dec  9 2016 09:48:43 by eja",
  "dcmmeta_affine": [
    [
      -1.4996205568313599,
      -0.025390546768903732,
      0.022217242047190666,
      105.06611633300781
    ],
    [
      -0.03284887596964836,
      1.3241441249847412,
      -0.7039625644683838,
      -40.91199493408203
    ],
    [
      0.00769655779004097,
      0.7042710185050964,
      1.3243651390075684,
      -110.21065521240234
    ],
    [
      0,
      0,
      0,
      1
    ]
  ],
  "dcmmeta_reorient_transform": [
    [
      0,
      -1,
      0,
      139
    ],
    [
      1,
      0,
      0,
      0
    ],
    [
      0,
      0,
      1,
      0
    ],
    [
      0,
      0,
      0,
      1
    ]
  ],
  "dcmmeta_shape": [
    140,
    140,
    92,
    99
  ],
  "dcmmeta_slice_dim": 2,
  "dcmmeta_version": 0.6,
  "time": {
    "samples": {
      "AcquisitionNumber": [
        1,
        2,
        3,
        4,
        5,
        6,
        7,
        8,
        9,
        10,
        11,
        12,
        13,
        14,
        15,
        16,
        17,
        18,
        19,
        20,
        21,
        22,
        23,
        24,
        25,
        26,
        27,
        28,
        29,
        30,
        31,
        32,
        33,
        34,
        35,
        36,
        37,
        38,
        39,
        40,
        41,
        42,
        43,
        44,
        45,
        46,
        47,
        48,
        49,
        50,
        51,
        52,
        53,
        54,
        55,
        56,
        57,
        58,
        59,
        60,
        61,
        62,
        63,
        64,
        65,
        66,
        67,
        68,
        69,
        70,
        71,
        72,
        73,
        74,
        75,
        76,
        77,
        78,
        79,
        80,
        81,
        82,
        83,
        84,
        85,
        86,
        87,
        88,
        89,
        90,
        91,
        92,
        93,
        94,
        95,
        96,
        97,
        98,
        99
      ],
      "AcquisitionTime": [
        "185248.232500",
        "185251.462500",
        "185254.692500",
        "185257.922500",
        "185301.152500",
        "185304.382500",
        "185307.612500",
        "185310.842500",
        "185314.072500",
        "185317.302500",
        "185320.532500",
        "185323.762500",
        "185326.992500",
        "185330.222500",
        "185333.452500",
        "185336.682500",
        "185339.912500",
        "185343.142500",
        "185346.372500",
        "185349.602500",
        "185352.832500",
        "185356.062500",
        "185359.292500",
        "185402.522500",
        "185405.752500",
        "185408.982500",
        "185412.212500",
        "185415.442500",
        "185418.672500",
        "185421.902500",
        "185425.132500",
        "185428.362500",
        "185431.592500",
        "185434.822500",
        "185438.052500",
        "185441.282500",
        "185444.512500",
        "185447.742500",
        "185450.972500",
        "185454.202500",
        "185457.432500",
        "185500.662500",
        "185503.892500",
        "185507.122500",
        "185510.352500",
        "185513.582500",
        "185516.812500",
        "185520.042500",
        "185523.272500",
        "185526.502500",
        "185529.732500",
        "185532.962500",
        "185536.192500",
        "185539.422500",
        "185542.652500",
        "185545.882500",
        "185549.112500",
        "185552.342500",
        "185555.572500",
        "185558.802500",
        "185602.032500",
        "185605.262500",
        "185608.492500",
        "185611.722500",
        "185614.952500",
        "185618.182500",
        "185621.412500",
        "185624.642500",
        "185627.872500",
        "185631.102500",
        "185634.332500",
        "185637.562500",
        "185640.792500",
        "185644.022500",
        "185647.252500",
        "185650.482500",
        "185653.712500",
        "185656.942500",
        "185700.172500",
        "185703.402500",
        "185706.632500",
        "185709.862500",
        "185713.092500",
        "185716.322500",
        "185719.552500",
        "185722.782500",
        "185726.012500",
        "185729.242500",
        "185732.472500",
        "185735.702500",
        "185738.932500",
        "185742.162500",
        "185745.392500",
        "185748.622500",
        "185751.852500",
        "185755.082500",
        "185758.312500",
        "185801.542500",
        "185804.772500"
      ],
      "ContentTime": [
        "185402.678000",
        "185402.682000",
        "185402.695000",
        "185402.699000",
        "185402.707000",
        "185402.711000",
        "185402.714000",
        "185402.718000",
        "185402.721000",
        "185402.725000",
        "185402.728000",
        "185402.737000",
        "185402.741000",
        "185402.744000",
        "185402.748000",
        "185402.752000",
        "185402.755000",
        "185402.759000",
        "185402.762000",
        "185402.766000",
        "185402.769000",
        "185402.773000",
        "185522.636000",
        "185522.640000",
        "185522.643000",
        "185522.647000",
        "185522.651000",
        "185522.654000",
        "185522.657000",
        "185522.661000",
        "185522.664000",
        "185522.676000",
        "185522.680000",
        "185522.683000",
        "185522.687000",
        "185522.690000",
        "185522.693000",
        "185522.697000",
        "185522.701000",
        "185522.704000",
        "185522.707000",
        "185522.711000",
        "185522.714000",
        "185522.718000",
        "185522.721000",
        "185522.725000",
        "185522.728000",
        "185642.635000",
        "185642.639000",
        "185642.643000",
        "185642.654000",
        "185642.658000",
        "185642.661000",
        "185642.664000",
        "185642.668000",
        "185642.672000",
        "185642.675000",
        "185642.678000",
        "185642.682000",
        "185642.685000",
        "185642.689000",
        "185642.692000",
        "185642.695000",
        "185642.699000",
        "185642.703000",
        "185642.706000",
        "185642.709000",
        "185642.713000",
        "185642.716000",
        "185642.720000",
        "185642.723000",
        "185642.727000",
        "185802.637000",
        "185802.646000",
        "185802.650000",
        "185802.653000",
        "185802.656000",
        "185802.660000",
        "185802.663000",
        "185802.667000",
        "185802.670000",
        "185802.673000",
        "185802.677000",
        "185802.680000",
        "185802.684000",
        "185802.687000",
        "185802.691000",
        "185802.694000",
        "185802.704000",
        "185802.708000",
        "185802.711000",
        "185802.715000",
        "185802.718000",
        "185802.721000",
        "185802.725000",
        "185802.728000",
        "185802.732000",
        "185808.788000",
        "185808.821000"
      ],
      "InstanceCreationTime": [
        "185402.678000",
        "185402.682000",
        "185402.695000",
        "185402.699000",
        "185402.707000",
        "185402.711000",
        "185402.714000",
        "185402.718000",
        "185402.721000",
        "185402.725000",
        "185402.728000",
        "185402.737000",
        "185402.741000",
        "185402.744000",
        "185402.748000",
        "185402.752000",
        "185402.755000",
        "185402.759000",
        "185402.762000",
        "185402.766000",
        "185402.769000",
        "185402.773000",
        "185522.636000",
        "185522.640000",
        "185522.643000",
        "185522.647000",
        "185522.651000",
        "185522.654000",
        "185522.657000",
        "185522.661000",
        "185522.664000",
        "185522.676000",
        "185522.680000",
        "185522.683000",
        "185522.687000",
        "185522.690000",
        "185522.693000",
        "185522.697000",
        "185522.701000",
        "185522.704000",
        "185522.707000",
        "185522.711000",
        "185522.714000",
        "185522.718000",
        "185522.721000",
        "185522.725000",
        "185522.728000",
        "185642.635000",
        "185642.639000",
        "185642.643000",
        "185642.654000",
        "185642.658000",
        "185642.661000",
        "185642.664000",
        "185642.668000",
        "185642.672000",
        "185642.675000",
        "185642.678000",
        "185642.682000",
        "185642.685000",
        "185642.689000",
        "185642.692000",
        "185642.695000",
        "185642.699000",
        "185642.703000",
        "185642.706000",
        "185642.709000",
        "185642.713000",
        "185642.716000",
        "185642.720000",
        "185642.723000",
        "185642.727000",
        "185802.637000",
        "185802.646000",
        "185802.650000",
        "185802.653000",
        "185802.656000",
        "185802.660000",
        "185802.663000",
        "185802.667000",
        "185802.670000",
        "185802.673000",
        "185802.677000",
        "185802.680000",
        "185802.684000",
        "185802.687000",
        "185802.691000",
        "185802.694000",
        "185802.704000",
        "185802.708000",
        "185802.711000",
        "185802.715000",
        "185802.718000",
        "185802.721000",
        "185802.725000",
        "185802.728000",
        "185802.732000",
        "185808.788000",
        "185808.821000"
      ],
      "InstanceNumber": [
        1,
        2,
        3,
        4,
        5,
        6,
        7,
        8,
        9,
        10,
        11,
        12,
        13,
        14,
        15,
        16,
        17,
        18,
        19,
        20,
        21,
        22,
        23,
        24,
        25,
        26,
        27,
        28,
        29,
        30,
        31,
        32,
        33,
        34,
        35,
        36,
        37,
        38,
        39,
        40,
        41,
        42,
        43,
        44,
        45,
        46,
        47,
        48,
        49,
        50,
        51,
        52,
        53,
        54,
        55,
        56,
        57,
        58,
        59,
        60,
        61,
        62,
        63,
        64,
        65,
        66,
        67,
        68,
        69,
        70,
        71,
        72,
        73,
        74,
        75,
        76,
        77,
        78,
        79,
        80,
        81,
        82,
        83,
        84,
        85,
        86,
        87,
        88,
        89,
        90,
        91,
        92,
        93,
        94,
        95,
        96,
        97,
        98,
        99
      ],
      "LargestImagePixelValue": [
        24291,
        25960,
        3680,
        1767,
        3833,
        1779,
        3942,
        1826,
        3616,
        1677,
        3661,
        1697,
        3540,
        2030,
        3615,
        1983,
        4306,
        25454,
        1968,
        3738,
        1808,
        3313,
        1692,
        3530,
        1770,
        3527,
        1785,
        3567,
        1831,
        3590,
        1816,
        3825,
        1806,
        25391,
        3570,
        1982,
        3571,
        1689,
        3367,
        1786,
        3618,
        1801,
        3535,
        1737,
        3560,
        1845,
        3494,
        1919,
        3847,
        25653,
        2180,
        3386,
        1733,
        3919,
        1891,
        3536,
        1627,
        3694,
        1866,
        3836,
        1825,
        3853,
        1727,
        3751,
        1822,
        26144,
        3554,
        1794,
        3235,
        1744,
        3684,
        1770,
        3770,
        1836,
        3784,
        1977,
        3472,
        1540,
        3311,
        1838,
        3331,
        25227,
        1636,
        3801,
        1645,
        3639,
        2008,
        3471,
        1769,
        3493,
        1718,
        3382,
        1796,
        3625,
        1901,
        3720,
        1916,
        3650,
        1799
      ],
      "SequenceName": [
        "ep_b5#1",
        "ep_b5#1",
        "ep_b1490#2",
        "ep_b2990#3",
        "ep_b1495#4",
        "ep_b3005#5",
        "ep_b1505#6",
        "ep_b2985#7",
        "ep_b1500#8",
        "ep_b3005#9",
        "ep_b1490#10",
        "ep_b2995#11",
        "ep_b1495#12",
        "ep_b2990#13",
        "ep_b1500#14",
        "ep_b2985#15",
        "ep_b1505#16",
        "ep_b5#17",
        "ep_b3005#18",
        "ep_b1490#19",
        "ep_b3000#20",
        "ep_b1495#21",
        "ep_b3000#22",
        "ep_b1495#23",
        "ep_b3000#24",
        "ep_b1490#25",
        "ep_b2980#26",
        "ep_b1505#27",
        "ep_b2990#28",
        "ep_b1495#29",
        "ep_b3000#30",
        "ep_b1490#31",
        "ep_b3000#32",
        "ep_b5#33",
        "ep_b1505#34",
        "ep_b3000#35",
        "ep_b1490#36",
        "ep_b2980#37",
        "ep_b1495#38",
        "ep_b3000#39",
        "ep_b1500#40",
        "ep_b2995#41",
        "ep_b1505#42",
        "ep_b2990#43",
        "ep_b1495#44",
        "ep_b3000#45",
        "ep_b1495#46",
        "ep_b3000#47",
        "ep_b1490#48",
        "ep_b5#49",
        "ep_b3005#50",
        "ep_b1495#51",
        "ep_b2995#52",
        "ep_b1505#53",
        "ep_b2995#54",
        "ep_b1490#55",
        "ep_b2990#56",
        "ep_b1490#57",
        "ep_b3000#58",
        "ep_b1500#59",
        "ep_b3000#60",
        "ep_b1505#61",
        "ep_b2985#62",
        "ep_b1500#63",
        "ep_b2990#64",
        "ep_b5#65",
        "ep_b1505#66",
        "ep_b3005#67",
        "ep_b1495#68",
        "ep_b3005#69",
        "ep_b1505#70",
        "ep_b3005#71",
        "ep_b1500#72",
        "ep_b3005#73",
        "ep_b1490#74",
        "ep_b2990#75",
        "ep_b1495#76",
        "ep_b2995#77",
        "ep_b1500#78",
        "ep_b3000#79",
        "ep_b1490#80",
        "ep_b5#81",
        "ep_b2990#82",
        "ep_b1500#83",
        "ep_b2985#84",
        "ep_b1495#85",
        "ep_b2995#86",
        "ep_b1495#87",
        "ep_b2990#88",
        "ep_b1490#89",
        "ep_b2980#90",
        "ep_b1500#91",
        "ep_b2995#92",
        "ep_b1495#93",
        "ep_b3005#94",
        "ep_b1500#95",
        "ep_b2990#96",
        "ep_b1500#97",
        "ep_b3000#98"
      ],
      "TriggerTime": [
        18775,
        22005,
        25235,
        28465,
        31695,
        34925,
        38155,
        41385,
        44615,
        47845,
        51075,
        54305,
        57535,
        60765,
        63995,
        67225,
        70455,
        73685,
        76915,
        80145,
        83375,
        86605,
        89835,
        93065,
        96295,
        99525,
        102755,
        105985,
        109215,
        112445,
        115675,
        118905,
        122135,
        125365,
        128595,
        131825,
        135055,
        138285,
        141515,
        144745,
        147975,
        151205,
        154435,
        157665,
        160895,
        164125,
        167355,
        170585,
        173815,
        177045,
        180275,
        183505,
        186735,
        189965,
        193195,
        196425,
        199655,
        202885,
        206115,
        209345,
        212575,
        215805,
        219035,
        222265,
        225495,
        228725,
        231955,
        235185,
        238415,
        241645,
        244875,
        248105,
        251335,
        254565,
        257795,
        261025,
        264255,
        267485,
        270715,
        273945,
        277175,
        280405,
        283635,
        286865,
        290095,
        293325,
        296555,
        299785,
        303015,
        306245,
        309475,
        312705,
        315935,
        319165,
        322395,
        325625,
        328855,
        332085,
        335315
      ],
      "WindowCenter": [
        3837,
        3919,
        1290,
        738,
        1308,
        750,
        1290,
        743,
        1294,
        688,
        1277,
        704,
        1293,
        759,
        1279,
        757,
        1304,
        3879,
        753,
        1305,
        739,
        1263,
        707,
        1280,
        740,
        1277,
        740,
        1289,
        759,
        1290,
        742,
        1306,
        752,
        3880,
        1290,
        739,
        1277,
        703,
        1274,
        743,
        1288,
        738,
        1280,
        703,
        1293,
        738,
        1277,
        760,
        1292,
        3903,
        778,
        1289,
        693,
        1291,
        745,
        1279,
        704,
        1303,
        739,
        1306,
        740,
        1288,
        700,
        1305,
        744,
        3900,
        1277,
        755,
        1267,
        690,
        1289,
        755,
        1304,
        740,
        1292,
        757,
        1294,
        705,
        1265,
        740,
        1265,
        3896,
        701,
        1305,
        688,
        1292,
        760,
        1278,
        740,
        1276,
        684,
        1292,
        739,
        1295,
        756,
        1290,
        758,
        1280,
        750
      ],
      "WindowWidth": [
        9052,
        9234,
        3388,
        2032,
        3435,
        2061,
        3394,
        2048,
        3402,
        1907,
        3365,
        1948,
        3402,
        2094,
        3375,
        2085,
        3420,
        9151,
        2070,
        3424,
        2037,
        3334,
        1961,
        3373,
        2040,
        3365,
        2040,
        3384,
        2091,
        3390,
        2045,
        3425,
        2066,
        9155,
        3386,
        2036,
        3363,
        1945,
        3356,
        2051,
        3381,
        2033,
        3377,
        1945,
        3402,
        2034,
        3363,
        2096,
        3396,
        9191,
        2131,
        3383,
        1922,
        3395,
        2056,
        3370,
        1949,
        3415,
        2038,
        3426,
        2040,
        3387,
        1936,
        3429,
        2053,
        9172,
        3362,
        2079,
        3348,
        1914,
        3384,
        2078,
        3425,
        2038,
        3398,
        2084,
        3404,
        1951,
        3339,
        2040,
        3341,
        9190,
        1938,
        3424,
        1905,
        3398,
        2096,
        3365,
        2039,
        3362,
        1894,
        3396,
        2038,
        3410,
        2080,
        3394,
        2090,
        3375,
        2058
      ]
    },
    "slices": {}
  }
}
