{
  "AcquisitionMatrixPE": 104,
  "AcquisitionNumber": 1,
  "AcquisitionTime": "16:07:1.430000",
  "BandwidthPerPixelPhaseEncode": 16.578,
  "BaseResolution": 104,
  "BodyPartExamined": "BRAIN",
  "CoilCombinationMethod": "Sum of Squares",
  "ConsistencyInfo": "N4_VE11C_LATEST_20160120",
  "ConversionSoftware": "dcm2niix",
  "ConversionSoftwareVersion": "v1.0.20220720",
  "DerivedVendorReportedEchoSpacing": 0.000580009,
  "DeviceSerialNumber": "67026",
  "DwellTime": 2.1e-06,
  "EchoTime": 0.037,
  "EchoTrainLength": 104,
  "EffectiveEchoSpacing": 0.000580009,
  "FlipAngle": 52,
  "HeudiconvVersion": "0.11.4",
  "ImageComments": "Unaliased MB8/PE3/LB",
  "ImageOrientationPatientDICOM": [
    0.997697,
    -0.0430412,
    -0.0524272,
    0.0365839,
    0.992287,
    -0.118442
  ],
  "ImageOrientationText": "Tra>Cor(-6.7)>Sag(-3.3)",
  "ImageType": [
    "ORIGINAL",
    "PRIMARY",
    "M",
    "MB",
    "ND",
    "MOSAIC"
  ],
  "ImagingFrequency": 123.191,
  "InPlanePhaseEncodingDirectionDICOM": "COL",
  "InstitutionAddress": "13th St. 149,Charlestown,MA,US,02129",
  "InstitutionName": "MGH PrismaFit-Bay4",
  "InstitutionalDepartmentName": "Martinos Center",
  "MRAcquisitionType": "2D",
  "MagneticFieldStrength": 3,
  "Manufacturer": "Siemens",
  "ManufacturersModelName": "Prisma_fit",
  "MatrixCoilMode": "SENSE",
  "Modality": "MR",
  "MultibandAccelerationFactor": 8,
  "NonlinearGradientCorrection": false,
  "PartialFourier": 1,
  "PatientPosition": "HFS",
  "PercentPhaseFOV": 100,
  "PercentSampling": 100,
  "PhaseEncodingDirection": "j-",
  "PhaseEncodingSteps": 104,
  "PhaseResolution": 1,
  "PixelBandwidth": 2290,
  "ProcedureStepDescription": "INVESTIGATORS^Greve",
  "ProtocolName": "rfMRI_REST_AP",
  "PulseSequenceDetails": "%CustomerSeq%\\hcp_mbep2d_bold",
  "ReceiveCoilActiveElements": "HEA;HEP",
  "ReceiveCoilName": "Head_32",
  "ReconMatrixPE": 104,
  "RepetitionTime": 0.8,
  "SAR": 0.0730334,
  "ScanOptions": "FS\\EXT",
  "ScanningSequence": "EP",
  "SequenceName": "epfid2d1_104",
  "SequenceVariant": "SK\\SS",
  "SeriesDescription": "rfMRI_REST_AP",
  "SeriesNumber": 19,
  "ShimSetting": [
    -1222,
    -10544,
    -10129,
    641,
    142,
    88,
    0,
    -21
  ],
  "SliceThickness": 2,
  "SliceTiming": [
    0,
    0.435,
    0.0875,
    0.52,
    0.175,
    0.6075,
    0.26,
    0.695,
    0.3475,
    0,
    0.435,
    0.0875,
    0.52,
    0.175,
    0.6075,
    0.26,
    0.695,
    0.3475,
    0,
    0.435,
    0.0875,
    0.52,
    0.175,
    0.6075,
    0.26,
    0.695,
    0.3475,
    0,
    0.435,
    0.0875,
    0.52,
    0.175,
    0.6075,
    0.26,
    0.695,
    0.3475,
    0,
    0.435,
    0.0875,
    0.52,
    0.175,
    0.6075,
    0.26,
    0.695,
    0.3475,
    0,
    0.435,
    0.0875,
    0.52,
    0.175,
    0.6075,
    0.26,
    0.695,
    0.3475,
    0,
    0.435,
    0.0875,
    0.52,
    0.175,
    0.6075,
    0.26,
    0.695,
    0.3475,
    0,
    0.435,
    0.0875,
    0.52,
    0.175,
    0.6075,
    0.26,
    0.695,
    0.3475
  ],
  "SoftwareVersions": "syngo MR E11",
  "SpacingBetweenSlices": 2,
  "StationName": "BAY4OC",
  "TaskName": "rest",
  "TotalReadoutTime": 0.0597409,
  "TxRefAmp": 219.223,
  "WipMemBlock": "7515c099-7a68-4c0f-8878-f4f8aa50ba0e||Sequence: ve11c/master r/5b0256d+; Dec  9 2016 09:38:51 by eja",
  "dcmmeta_affine": [
    [
      -1.9953935146331787,
      0.07316777855157852,
      -0.1142413392663002,
      102.38196563720703
    ],
    [
      0.08608241379261017,
      1.9845736026763916,
      -0.2325030118227005,
      -78.9345474243164
    ],
    [
      -0.10485430061817169,
      0.23688457906246185,
      1.983151912689209,
      -49.41883087158203
    ],
    [
      0,
      0,
      0,
      1
    ]
  ],
  "dcmmeta_reorient_transform": [
    [
      0,
      -1,
      0,
      103
    ],
    [
      1,
      0,
      0,
      0
    ],
    [
      0,
      0,
      1,
      0
    ],
    [
      0,
      0,
      0,
      1
    ]
  ],
  "dcmmeta_shape": [
    104,
    104,
    72,
    600
  ],
  "dcmmeta_slice_dim": 2,
  "dcmmeta_version": 0.6,
  "time": {
    "samples": {
      "AcquisitionNumber": [
        1,
        2,
        3,
        4,
        5,
        6,
        7,
        8,
        9,
        10,
        11,
        12,
        13,
        14,
        15,
        16,
        17,
        18,
        19,
        20,
        21,
        22,
        23,
        24,
        25,
        26,
        27,
        28,
        29,
        30,
        31,
        32,
        33,
        34,
        35,
        36,
        37,
        38,
        39,
        40,
        41,
        42,
        43,
        44,
        45,
        46,
        47,
        48,
        49,
        50,
        51,
        52,
        53,
        54,
        55,
        56,
        57,
        58,
        59,
        60,
        61,
        62,
        63,
        64,
        65,
        66,
        67,
        68,
        69,
        70,
        71,
        72,
        73,
        74,
        75,
        76,
        77,
        78,
        79,
        80,
        81,
        82,
        83,
        84,
        85,
        86,
        87,
        88,
        89,
        90,
        91,
        92,
        93,
        94,
        95,
        96,
        97,
        98,
        99,
        100,
        101,
        102,
        103,
        104,
        105,
        106,
        107,
        108,
        109,
        110,
        111,
        112,
        113,
        114,
        115,
        116,
        117,
        118,
        119,
        120,
        121,
        122,
        123,
        124,
        125,
        126,
        127,
        128,
        129,
        130,
        131,
        132,
        133,
        134,
        135,
        136,
        137,
        138,
        139,
        140,
        141,
        142,
        143,
        144,
        145,
        146,
        147,
        148,
        149,
        150,
        151,
        152,
        153,
        154,
        155,
        156,
        157,
        158,
        159,
        160,
        161,
        162,
        163,
        164,
        165,
        166,
        167,
        168,
        169,
        170,
        171,
        172,
        173,
        174,
        175,
        176,
        177,
        178,
        179,
        180,
        181,
        182,
        183,
        184,
        185,
        186,
        187,
        188,
        189,
        190,
        191,
        192,
        193,
        194,
        195,
        196,
        197,
        198,
        199,
        200,
        201,
        202,
        203,
        204,
        205,
        206,
        207,
        208,
        209,
        210,
        211,
        212,
        213,
        214,
        215,
        216,
        217,
        218,
        219,
        220,
        221,
        222,
        223,
        224,
        225,
        226,
        227,
        228,
        229,
        230,
        231,
        232,
        233,
        234,
        235,
        236,
        237,
        238,
        239,
        240,
        241,
        242,
        243,
        244,
        245,
        246,
        247,
        248,
        249,
        250,
        251,
        252,
        253,
        254,
        255,
        256,
        257,
        258,
        259,
        260,
        261,
        262,
        263,
        264,
        265,
        266,
        267,
        268,
        269,
        270,
        271,
        272,
        273,
        274,
        275,
        276,
        277,
        278,
        279,
        280,
        281,
        282,
        283,
        284,
        285,
        286,
        287,
        288,
        289,
        290,
        291,
        292,
        293,
        294,
        295,
        296,
        297,
        298,
        299,
        300,
        301,
        302,
        303,
        304,
        305,
        306,
        307,
        308,
        309,
        310,
        311,
        312,
        313,
        314,
        315,
        316,
        317,
        318,
        319,
        320,
        321,
        322,
        323,
        324,
        325,
        326,
        327,
        328,
        329,
        330,
        331,
        332,
        333,
        334,
        335,
        336,
        337,
        338,
        339,
        340,
        341,
        342,
        343,
        344,
        345,
        346,
        347,
        348,
        349,
        350,
        351,
        352,
        353,
        354,
        355,
        356,
        357,
        358,
        359,
        360,
        361,
        362,
        363,
        364,
        365,
        366,
        367,
        368,
        369,
        370,
        371,
        372,
        373,
        374,
        375,
        376,
        377,
        378,
        379,
        380,
        381,
        382,
        383,
        384,
        385,
        386,
        387,
        388,
        389,
        390,
        391,
        392,
        393,
        394,
        395,
        396,
        397,
        398,
        399,
        400,
        401,
        402,
        403,
        404,
        405,
        406,
        407,
        408,
        409,
        410,
        411,
        412,
        413,
        414,
        415,
        416,
        417,
        418,
        419,
        420,
        421,
        422,
        423,
        424,
        425,
        426,
        427,
        428,
        429,
        430,
        431,
        432,
        433,
        434,
        435,
        436,
        437,
        438,
        439,
        440,
        441,
        442,
        443,
        444,
        445,
        446,
        447,
        448,
        449,
        450,
        451,
        452,
        453,
        454,
        455,
        456,
        457,
        458,
        459,
        460,
        461,
        462,
        463,
        464,
        465,
        466,
        467,
        468,
        469,
        470,
        471,
        472,
        473,
        474,
        475,
        476,
        477,
        478,
        479,
        480,
        481,
        482,
        483,
        484,
        485,
        486,
        487,
        488,
        489,
        490,
        491,
        492,
        493,
        494,
        495,
        496,
        497,
        498,
        499,
        500,
        501,
        502,
        503,
        504,
        505,
        506,
        507,
        508,
        509,
        510,
        511,
        512,
        513,
        514,
        515,
        516,
        517,
        518,
        519,
        520,
        521,
        522,
        523,
        524,
        525,
        526,
        527,
        528,
        529,
        530,
        531,
        532,
        533,
        534,
        535,
        536,
        537,
        538,
        539,
        540,
        541,
        542,
        543,
        544,
        545,
        546,
        547,
        548,
        549,
        550,
        551,
        552,
        553,
        554,
        555,
        556,
        557,
        558,
        559,
        560,
        561,
        562,
        563,
        564,
        565,
        566,
        567,
        568,
        569,
        570,
        571,
        572,
        573,
        574,
        575,
        576,
        577,
        578,
        579,
        580,
        581,
        582,
        583,
        584,
        585,
        586,
        587,
        588,
        589,
        590,
        591,
        592,
        593,
        594,
        595,
        596,
        597,
        598,
        599,
        600
      ],
      "AcquisitionTime": [
        "160701.430000",
        "160702.230000",
        "160703.030000",
        "160703.830000",
        "160704.630000",
        "160705.430000",
        "160706.230000",
        "160707.030000",
        "160707.830000",
        "160708.630000",
        "160709.430000",
        "160710.230000",
        "160711.030000",
        "160711.830000",
        "160712.630000",
        "160713.430000",
        "160714.230000",
        "160715.030000",
        "160715.830000",
        "160716.630000",
        "160717.430000",
        "160718.230000",
        "160719.030000",
        "160719.830000",
        "160720.630000",
        "160721.430000",
        "160722.230000",
        "160723.030000",
        "160723.830000",
        "160724.630000",
        "160725.430000",
        "160726.230000",
        "160727.030000",
        "160727.830000",
        "160728.630000",
        "160729.430000",
        "160730.230000",
        "160731.030000",
        "160731.830000",
        "160732.630000",
        "160733.430000",
        "160734.230000",
        "160735.030000",
        "160735.830000",
        "160736.630000",
        "160737.430000",
        "160738.230000",
        "160739.030000",
        "160739.830000",
        "160740.630000",
        "160741.430000",
        "160742.230000",
        "160743.030000",
        "160743.830000",
        "160744.630000",
        "160745.430000",
        "160746.230000",
        "160747.030000",
        "160747.830000",
        "160748.630000",
        "160749.430000",
        "160750.230000",
        "160751.030000",
        "160751.830000",
        "160752.630000",
        "160753.430000",
        "160754.230000",
        "160755.030000",
        "160755.830000",
        "160756.630000",
        "160757.430000",
        "160758.230000",
        "160759.030000",
        "160759.830000",
        "160800.630000",
        "160801.430000",
        "160802.230000",
        "160803.030000",
        "160803.830000",
        "160804.630000",
        "160805.430000",
        "160806.230000",
        "160807.030000",
        "160807.830000",
        "160808.630000",
        "160809.430000",
        "160810.230000",
        "160811.030000",
        "160811.830000",
        "160812.630000",
        "160813.430000",
        "160814.230000",
        "160815.030000",
        "160815.830000",
        "160816.630000",
        "160817.430000",
        "160818.230000",
        "160819.030000",
        "160819.830000",
        "160820.630000",
        "160821.430000",
        "160822.230000",
        "160823.030000",
        "160823.830000",
        "160824.630000",
        "160825.430000",
        "160826.230000",
        "160827.030000",
        "160827.830000",
        "160828.630000",
        "160829.430000",
        "160830.230000",
        "160831.030000",
        "160831.830000",
        "160832.630000",
        "160833.430000",
        "160834.230000",
        "160835.030000",
        "160835.830000",
        "160836.630000",
        "160837.430000",
        "160838.230000",
        "160839.030000",
        "160839.830000",
        "160840.630000",
        "160841.430000",
        "160842.230000",
        "160843.030000",
        "160843.830000",
        "160844.630000",
        "160845.430000",
        "160846.230000",
        "160847.030000",
        "160847.830000",
        "160848.630000",
        "160849.430000",
        "160850.230000",
        "160851.030000",
        "160851.830000",
        "160852.630000",
        "160853.430000",
        "160854.230000",
        "160855.030000",
        "160855.830000",
        "160856.630000",
        "160857.430000",
        "160858.230000",
        "160859.030000",
        "160859.830000",
        "160900.630000",
        "160901.430000",
        "160902.230000",
        "160903.030000",
        "160903.830000",
        "160904.630000",
        "160905.430000",
        "160906.230000",
        "160907.030000",
        "160907.830000",
        "160908.630000",
        "160909.430000",
        "160910.230000",
        "160911.030000",
        "160911.830000",
        "160912.630000",
        "160913.430000",
        "160914.230000",
        "160915.030000",
        "160915.830000",
        "160916.630000",
        "160917.430000",
        "160918.230000",
        "160919.030000",
        "160919.830000",
        "160920.630000",
        "160921.430000",
        "160922.230000",
        "160923.030000",
        "160923.830000",
        "160924.630000",
        "160925.430000",
        "160926.230000",
        "160927.030000",
        "160927.830000",
        "160928.630000",
        "160929.430000",
        "160930.230000",
        "160931.030000",
        "160931.830000",
        "160932.630000",
        "160933.430000",
        "160934.230000",
        "160935.030000",
        "160935.830000",
        "160936.630000",
        "160937.430000",
        "160938.230000",
        "160939.030000",
        "160939.830000",
        "160940.630000",
        "160941.430000",
        "160942.230000",
        "160943.030000",
        "160943.830000",
        "160944.630000",
        "160945.430000",
        "160946.230000",
        "160947.030000",
        "160947.830000",
        "160948.630000",
        "160949.430000",
        "160950.230000",
        "160951.030000",
        "160951.830000",
        "160952.630000",
        "160953.430000",
        "160954.230000",
        "160955.030000",
        "160955.830000",
        "160956.630000",
        "160957.430000",
        "160958.230000",
        "160959.030000",
        "160959.830000",
        "161000.630000",
        "161001.430000",
        "161002.230000",
        "161003.030000",
        "161003.830000",
        "161004.630000",
        "161005.430000",
        "161006.230000",
        "161007.030000",
        "161007.830000",
        "161008.630000",
        "161009.430000",
        "161010.230000",
        "161011.030000",
        "161011.830000",
        "161012.630000",
        "161013.430000",
        "161014.230000",
        "161015.030000",
        "161015.830000",
        "161016.630000",
        "161017.430000",
        "161018.230000",
        "161019.030000",
        "161019.830000",
        "161020.630000",
        "161021.430000",
        "161022.230000",
        "161023.030000",
        "161023.830000",
        "161024.630000",
        "161025.430000",
        "161026.230000",
        "161027.030000",
        "161027.830000",
        "161028.630000",
        "161029.430000",
        "161030.230000",
        "161031.030000",
        "161031.830000",
        "161032.630000",
        "161033.430000",
        "161034.230000",
        "161035.030000",
        "161035.830000",
        "161036.630000",
        "161037.430000",
        "161038.230000",
        "161039.030000",
        "161039.830000",
        "161040.630000",
        "161041.430000",
        "161042.230000",
        "161043.030000",
        "161043.830000",
        "161044.630000",
        "161045.430000",
        "161046.230000",
        "161047.030000",
        "161047.830000",
        "161048.630000",
        "161049.430000",
        "161050.230000",
        "161051.030000",
        "161051.830000",
        "161052.630000",
        "161053.430000",
        "161054.230000",
        "161055.030000",
        "161055.830000",
        "161056.630000",
        "161057.430000",
        "161058.230000",
        "161059.030000",
        "161059.830000",
        "161100.630000",
        "161101.430000",
        "161102.230000",
        "161103.030000",
        "161103.830000",
        "161104.630000",
        "161105.430000",
        "161106.230000",
        "161107.030000",
        "161107.830000",
        "161108.630000",
        "161109.430000",
        "161110.230000",
        "161111.030000",
        "161111.830000",
        "161112.630000",
        "161113.430000",
        "161114.230000",
        "161115.030000",
        "161115.830000",
        "161116.630000",
        "161117.430000",
        "161118.230000",
        "161119.030000",
        "161119.830000",
        "161120.630000",
        "161121.430000",
        "161122.230000",
        "161123.030000",
        "161123.830000",
        "161124.630000",
        "161125.430000",
        "161126.230000",
        "161127.030000",
        "161127.830000",
        "161128.630000",
        "161129.430000",
        "161130.230000",
        "161131.030000",
        "161131.830000",
        "161132.630000",
        "161133.430000",
        "161134.230000",
        "161135.030000",
        "161135.830000",
        "161136.630000",
        "161137.430000",
        "161138.230000",
        "161139.030000",
        "161139.830000",
        "161140.630000",
        "161141.430000",
        "161142.230000",
        "161143.030000",
        "161143.830000",
        "161144.630000",
        "161145.430000",
        "161146.230000",
        "161147.030000",
        "161147.830000",
        "161148.630000",
        "161149.430000",
        "161150.230000",
        "161151.030000",
        "161151.830000",
        "161152.630000",
        "161153.430000",
        "161154.230000",
        "161155.030000",
        "161155.830000",
        "161156.630000",
        "161157.430000",
        "161158.230000",
        "161159.030000",
        "161159.830000",
        "161200.630000",
        "161201.430000",
        "161202.230000",
        "161203.030000",
        "161203.830000",
        "161204.630000",
        "161205.430000",
        "161206.230000",
        "161207.030000",
        "161207.830000",
        "161208.630000",
        "161209.430000",
        "161210.230000",
        "161211.030000",
        "161211.830000",
        "161212.630000",
        "161213.430000",
        "161214.230000",
        "161215.030000",
        "161215.830000",
        "161216.630000",
        "161217.430000",
        "161218.230000",
        "161219.030000",
        "161219.830000",
        "161220.630000",
        "161221.430000",
        "161222.230000",
        "161223.030000",
        "161223.830000",
        "161224.630000",
        "161225.430000",
        "161226.230000",
        "161227.030000",
        "161227.830000",
        "161228.630000",
        "161229.430000",
        "161230.230000",
        "161231.030000",
        "161231.830000",
        "161232.630000",
        "161233.430000",
        "161234.230000",
        "161235.030000",
        "161235.830000",
        "161236.630000",
        "161237.430000",
        "161238.230000",
        "161239.030000",
        "161239.830000",
        "161240.630000",
        "161241.430000",
        "161242.230000",
        "161243.030000",
        "161243.830000",
        "161244.630000",
        "161245.430000",
        "161246.230000",
        "161247.030000",
        "161247.830000",
        "161248.630000",
        "161249.430000",
        "161250.230000",
        "161251.030000",
        "161251.830000",
        "161252.630000",
        "161253.430000",
        "161254.230000",
        "161255.030000",
        "161255.830000",
        "161256.630000",
        "161257.430000",
        "161258.230000",
        "161259.030000",
        "161259.830000",
        "161300.630000",
        "161301.430000",
        "161302.230000",
        "161303.030000",
        "161303.830000",
        "161304.630000",
        "161305.430000",
        "161306.230000",
        "161307.030000",
        "161307.830000",
        "161308.630000",
        "161309.430000",
        "161310.230000",
        "161311.030000",
        "161311.830000",
        "161312.630000",
        "161313.430000",
        "161314.230000",
        "161315.030000",
        "161315.830000",
        "161316.630000",
        "161317.430000",
        "161318.230000",
        "161319.030000",
        "161319.830000",
        "161320.630000",
        "161321.430000",
        "161322.230000",
        "161323.030000",
        "161323.830000",
        "161324.630000",
        "161325.430000",
        "161326.230000",
        "161327.030000",
        "161327.830000",
        "161328.630000",
        "161329.430000",
        "161330.230000",
        "161331.030000",
        "161331.830000",
        "161332.630000",
        "161333.430000",
        "161334.230000",
        "161335.030000",
        "161335.830000",
        "161336.630000",
        "161337.430000",
        "161338.230000",
        "161339.030000",
        "161339.830000",
        "161340.630000",
        "161341.430000",
        "161342.230000",
        "161343.030000",
        "161343.830000",
        "161344.630000",
        "161345.430000",
        "161346.230000",
        "161347.030000",
        "161347.830000",
        "161348.630000",
        "161349.430000",
        "161350.230000",
        "161351.030000",
        "161351.830000",
        "161352.630000",
        "161353.430000",
        "161354.230000",
        "161355.030000",
        "161355.830000",
        "161356.630000",
        "161357.430000",
        "161358.230000",
        "161359.030000",
        "161359.830000",
        "161400.630000",
        "161401.430000",
        "161402.230000",
        "161403.030000",
        "161403.830000",
        "161404.630000",
        "161405.430000",
        "161406.230000",
        "161407.030000",
        "161407.830000",
        "161408.630000",
        "161409.430000",
        "161410.230000",
        "161411.030000",
        "161411.830000",
        "161412.630000",
        "161413.430000",
        "161414.230000",
        "161415.030000",
        "161415.830000",
        "161416.630000",
        "161417.430000",
        "161418.230000",
        "161419.030000",
        "161419.830000",
        "161420.630000",
        "161421.430000",
        "161422.230000",
        "161423.030000",
        "161423.830000",
        "161424.630000",
        "161425.430000",
        "161426.230000",
        "161427.030000",
        "161427.830000",
        "161428.630000",
        "161429.430000",
        "161430.230000",
        "161431.030000",
        "161431.830000",
        "161432.630000",
        "161433.430000",
        "161434.230000",
        "161435.030000",
        "161435.830000",
        "161436.630000",
        "161437.430000",
        "161438.230000",
        "161439.030000",
        "161439.830000",
        "161440.630000",
        "161441.430000",
        "161442.230000",
        "161443.030000",
        "161443.830000",
        "161444.630000",
        "161445.430000",
        "161446.230000",
        "161447.030000",
        "161447.830000",
        "161448.630000",
        "161449.430000",
        "161450.230000",
        "161451.030000",
        "161451.830000",
        "161452.630000",
        "161453.430000",
        "161454.230000",
        "161455.030000",
        "161455.830000",
        "161456.630000",
        "161457.430000",
        "161458.230000",
        "161459.030000",
        "161459.830000",
        "161500.630000"
      ],
      "ContentTime": [
        "160747.956000",
        "160747.960000",
        "160747.963000",
        "160747.973000",
        "160747.976000",
        "160747.978000",
        "160747.981000",
        "160747.984000",
        "160747.987000",
        "160747.990000",
        "160747.993000",
        "160747.995000",
        "160747.998000",
        "160748.001000",
        "160748.004000",
        "160748.007000",
        "160748.010000",
        "160748.012000",
        "160748.015000",
        "160748.018000",
        "160748.021000",
        "160748.034000",
        "160748.037000",
        "160748.040000",
        "160748.043000",
        "160748.046000",
        "160748.048000",
        "160748.051000",
        "160748.054000",
        "160748.057000",
        "160748.060000",
        "160748.063000",
        "160748.066000",
        "160748.069000",
        "160748.072000",
        "160748.075000",
        "160748.078000",
        "160748.080000",
        "160748.083000",
        "160748.086000",
        "160748.089000",
        "160748.092000",
        "160748.095000",
        "160748.097000",
        "160748.100000",
        "160807.918000",
        "160807.922000",
        "160807.925000",
        "160807.928000",
        "160807.931000",
        "160807.934000",
        "160807.937000",
        "160807.940000",
        "160807.942000",
        "160807.945000",
        "160807.948000",
        "160807.951000",
        "160807.954000",
        "160807.957000",
        "160807.960000",
        "160807.962000",
        "160807.965000",
        "160807.968000",
        "160807.971000",
        "160807.974000",
        "160807.976000",
        "160807.979000",
        "160807.982000",
        "160807.985000",
        "160807.988000",
        "160807.991000",
        "160807.993000",
        "160807.996000",
        "160808.000000",
        "160808.003000",
        "160808.006000",
        "160808.009000",
        "160808.011000",
        "160808.014000",
        "160808.017000",
        "160808.020000",
        "160827.919000",
        "160827.922000",
        "160827.925000",
        "160827.928000",
        "160827.931000",
        "160827.934000",
        "160827.938000",
        "160827.941000",
        "160827.944000",
        "160827.947000",
        "160827.950000",
        "160827.953000",
        "160827.956000",
        "160827.959000",
        "160827.962000",
        "160827.965000",
        "160827.968000",
        "160827.971000",
        "160827.974000",
        "160827.979000",
        "160827.983000",
        "160827.988000",
        "160827.998000",
        "160828.002000",
        "160847.918000",
        "160847.921000",
        "160847.924000",
        "160847.926000",
        "160847.929000",
        "160847.932000",
        "160847.935000",
        "160847.938000",
        "160847.941000",
        "160847.944000",
        "160847.947000",
        "160847.954000",
        "160847.957000",
        "160847.960000",
        "160847.963000",
        "160847.965000",
        "160847.968000",
        "160847.971000",
