{
  "AcquisitionMatrixPE": 104,
  "AcquisitionNumber": 1,
  "AcquisitionTime": "07:51:18.152500",
  "BandwidthPerPixelPhaseEncode": 16.578,
  "BaseResolution": 104,
  "BodyPartExamined": "BRAIN",
  "CoilCombinationMethod": "Sum of Squares",
  "ConsistencyInfo": "N4_VE11C_LATEST_20160120",
  "ConversionSoftware": "dcm2niix",
  "ConversionSoftwareVersion": "v1.0.20220720",
  "DerivedVendorReportedEchoSpacing": 0.000580009,
  "DeviceSerialNumber": "67026",
  "DwellTime": 2.1e-06,
  "EchoTime": 0.037,
  "EchoTrainLength": 104,
  "EffectiveEchoSpacing": 0.000580009,
  "FlipAngle": 52,
  "HeudiconvVersion": "0.11.4",
  "ImageComments": "Unaliased MB8/PE3/LB",
  "ImageOrientationPatientDICOM": [
    0.996712,
    0.0585304,
    -0.0560324,
    -0.0679489,
    0.980482,
    -0.184491
  ],
  "ImageOrientationText": "Tra>Cor(-10.8)>Sag(-2.5)",
  "ImageType": [
    "ORIGINAL",
    "PRIMARY",
    "M",
    "MB",
    "ND",
    "MOSAIC"
  ],
  "ImagingFrequency": 123.19,
  "InPlanePhaseEncodingDirectionDICOM": "COL",
  "InstitutionAddress": "13th St. 149,Charlestown,MA,US,02129",
  "InstitutionName": "MGH PrismaFit-Bay4",
  "InstitutionalDepartmentName": "Martinos Center",
  "MRAcquisitionType": "2D",
  "MagneticFieldStrength": 3,
  "Manufacturer": "Siemens",
  "ManufacturersModelName": "Prisma_fit",
  "MatrixCoilMode": "SENSE",
  "Modality": "MR",
  "MultibandAccelerationFactor": 8,
  "NonlinearGradientCorrection": false,
  "PartialFourier": 1,
  "PatientPosition": "HFS",
  "PercentPhaseFOV": 100,
  "PercentSampling": 100,
  "PhaseEncodingDirection": "j-",
  "PhaseEncodingSteps": 104,
  "PhaseResolution": 1,
  "PixelBandwidth": 2290,
  "ProcedureStepDescription": "INVESTIGATORS^Greve",
  "ProtocolName": "rfMRI_REST_AP",
  "PulseSequenceDetails": "%CustomerSeq%\\hcp_mbep2d_bold",
  "ReceiveCoilActiveElements": "HEA;HEP",
  "ReceiveCoilName": "Head_32",
  "ReconMatrixPE": 104,
  "RepetitionTime": 0.8,
  "SAR": 0.0827125,
  "ScanOptions": "FS\\EXT",
  "ScanningSequence": "EP",
  "SequenceName": "epfid2d1_104",
  "SequenceVariant": "SK\\SS",
  "SeriesDescription": "rfMRI_REST_AP",
  "SeriesNumber": 19,
  "ShimSetting": [
    -1234,
    -10527,
    -10121,
    391,
    122,
    114,
    -36,
    43
  ],
  "SliceThickness": 2,
  "SliceTiming": [
    0,
    0.4325,
    0.085,
    0.5175,
    0.1725,
    0.605,
    0.26,
    0.6925,
    0.345,
    0,
    0.4325,
    0.085,
    0.5175,
    0.1725,
    0.605,
    0.26,
    0.6925,
    0.345,
    0,
    0.4325,
    0.085,
    0.5175,
    0.1725,
    0.605,
    0.26,
    0.6925,
    0.345,
    0,
    0.4325,
    0.085,
    0.5175,
    0.1725,
    0.605,
    0.26,
    0.6925,
    0.345,
    0,
    0.4325,
    0.085,
    0.5175,
    0.1725,
    0.605,
    0.26,
    0.6925,
    0.345,
    0,
    0.4325,
    0.085,
    0.5175,
    0.1725,
    0.605,
    0.26,
    0.6925,
    0.345,
    0,
    0.4325,
    0.085,
    0.5175,
    0.1725,
    0.605,
    0.26,
    0.6925,
    0.345,
    0,
    0.4325,
    0.085,
    0.5175,
    0.1725,
    0.605,
    0.26,
    0.6925,
    0.345
  ],
  "SoftwareVersions": "syngo MR E11",
  "SpacingBetweenSlices": 2,
  "StationName": "BAY4OC",
  "TaskName": "rest",
  "TotalReadoutTime": 0.0597409,
  "TxRefAmp": 281.325,
  "WipMemBlock": "b0fe279a-be9a-481a-b398-9327c73206c5||Sequence: ve11c/master r/5b0256d+; Dec  9 2016 09:38:51 by eja",
  "dcmmeta_affine": [
    [
      -1.9934237003326416,
      -0.13589787483215332,
      -0.08828092366456985,
      112.9533920288086
    ],
    [
      -0.11706075817346573,
      1.9609649181365967,
      -0.3753840923309326,
      -62.592350006103516
    ],
    [
      -0.11206485331058502,
      0.3689826726913452,
      1.9624711275100708,
      -54.59798049926758
    ],
    [
      0,
      0,
      0,
      1
    ]
  ],
  "dcmmeta_reorient_transform": [
    [
      0,
      -1,
      0,
      103
    ],
    [
      1,
      0,
      0,
      0
    ],
    [
      0,
      0,
      1,
      0
    ],
    [
      0,
      0,
      0,
      1
    ]
  ],
  "dcmmeta_shape": [
    104,
    104,
    72,
    600
  ],
  "dcmmeta_slice_dim": 2,
  "dcmmeta_version": 0.6,
  "time": {
    "samples": {
      "AcquisitionNumber": [
        1,
        2,
        3,
        4,
        5,
        6,
        7,
        8,
        9,
        10,
        11,
        12,
        13,
        14,
        15,
        16,
        17,
        18,
        19,
        20,
        21,
        22,
        23,
        24,
        25,
        26,
        27,
        28,
        29,
        30,
        31,
        32,
        33,
        34,
        35,
        36,
        37,
        38,
        39,
        40,
        41,
        42,
        43,
        44,
        45,
        46,
        47,
        48,
        49,
        50,
        51,
        52,
        53,
        54,
        55,
        56,
        57,
        58,
        59,
        60,
        61,
        62,
        63,
        64,
        65,
        66,
        67,
        68,
        69,
        70,
        71,
        72,
        73,
        74,
        75,
        76,
        77,
        78,
        79,
        80,
        81,
        82,
        83,
        84,
        85,
        86,
        87,
        88,
        89,
        90,
        91,
        92,
        93,
        94,
        95,
        96,
        97,
        98,
        99,
        100,
        101,
        102,
        103,
        104,
        105,
        106,
        107,
        108,
        109,
        110,
        111,
        112,
        113,
        114,
        115,
        116,
        117,
        118,
        119,
        120,
        121,
        122,
        123,
        124,
        125,
        126,
        127,
        128,
        129,
        130,
        131,
        132,
        133,
        134,
        135,
        136,
        137,
        138,
        139,
        140,
        141,
        142,
        143,
        144,
        145,
        146,
        147,
        148,
        149,
        150,
        151,
        152,
        153,
        154,
        155,
        156,
        157,
        158,
        159,
        160,
        161,
        162,
        163,
        164,
        165,
        166,
        167,
        168,
        169,
        170,
        171,
        172,
        173,
        174,
        175,
        176,
        177,
        178,
        179,
        180,
        181,
        182,
        183,
        184,
        185,
        186,
        187,
        188,
        189,
        190,
        191,
        192,
        193,
        194,
        195,
        196,
        197,
        198,
        199,
        200,
        201,
        202,
        203,
        204,
        205,
        206,
        207,
        208,
        209,
        210,
        211,
        212,
        213,
        214,
        215,
        216,
        217,
        218,
        219,
        220,
        221,
        222,
        223,
        224,
        225,
        226,
        227,
        228,
        229,
        230,
        231,
        232,
        233,
        234,
        235,
        236,
        237,
        238,
        239,
        240,
        241,
        242,
        243,
        244,
        245,
        246,
        247,
        248,
        249,
        250,
        251,
        252,
        253,
        254,
        255,
        256,
        257,
        258,
        259,
        260,
        261,
        262,
        263,
        264,
        265,
        266,
        267,
        268,
        269,
        270,
        271,
        272,
        273,
        274,
        275,
        276,
        277,
        278,
        279,
        280,
        281,
        282,
        283,
        284,
        285,
        286,
        287,
        288,
        289,
        290,
        291,
        292,
        293,
        294,
        295,
        296,
        297,
        298,
        299,
        300,
        301,
        302,
        303,
        304,
        305,
        306,
        307,
        308,
        309,
        310,
        311,
        312,
        313,
        314,
        315,
        316,
        317,
        318,
        319,
        320,
        321,
        322,
        323,
        324,
        325,
        326,
        327,
        328,
        329,
        330,
        331,
        332,
        333,
        334,
        335,
        336,
        337,
        338,
        339,
        340,
        341,
        342,
        343,
        344,
        345,
        346,
        347,
        348,
        349,
        350,
        351,
        352,
        353,
        354,
        355,
        356,
        357,
        358,
        359,
        360,
        361,
        362,
        363,
        364,
        365,
        366,
        367,
        368,
        369,
        370,
        371,
        372,
        373,
        374,
        375,
        376,
        377,
        378,
        379,
        380,
        381,
        382,
        383,
        384,
        385,
        386,
        387,
        388,
        389,
        390,
        391,
        392,
        393,
        394,
        395,
        396,
        397,
        398,
        399,
        400,
        401,
        402,
        403,
        404,
        405,
        406,
        407,
        408,
        409,
        410,
        411,
        412,
        413,
        414,
        415,
        416,
        417,
        418,
        419,
        420,
        421,
        422,
        423,
        424,
        425,
        426,
        427,
        428,
        429,
        430,
        431,
        432,
        433,
        434,
        435,
        436,
        437,
        438,
        439,
        440,
        441,
        442,
        443,
        444,
        445,
        446,
        447,
        448,
        449,
        450,
        451,
        452,
        453,
        454,
        455,
        456,
        457,
        458,
        459,
        460,
        461,
        462,
        463,
        464,
        465,
        466,
        467,
        468,
        469,
        470,
        471,
        472,
        473,
        474,
        475,
        476,
        477,
        478,
        479,
        480,
        481,
        482,
        483,
        484,
        485,
        486,
        487,
        488,
        489,
        490,
        491,
        492,
        493,
        494,
        495,
        496,
        497,
        498,
        499,
        500,
        501,
        502,
        503,
        504,
        505,
        506,
        507,
        508,
        509,
        510,
        511,
        512,
        513,
        514,
        515,
        516,
        517,
        518,
        519,
        520,
        521,
        522,
        523,
        524,
        525,
        526,
        527,
        528,
        529,
        530,
        531,
        532,
        533,
        534,
        535,
        536,
        537,
        538,
        539,
        540,
        541,
        542,
        543,
        544,
        545,
        546,
        547,
        548,
        549,
        550,
        551,
        552,
        553,
        554,
        555,
        556,
        557,
        558,
        559,
        560,
        561,
        562,
        563,
        564,
        565,
        566,
        567,
        568,
        569,
        570,
        571,
        572,
        573,
        574,
        575,
        576,
        577,
        578,
        579,
        580,
        581,
        582,
        583,
        584,
        585,
        586,
        587,
        588,
        589,
        590,
        591,
        592,
        593,
        594,
        595,
        596,
        597,
        598,
        599,
        600
      ],
      "AcquisitionTime": [
        "075118.152500",
        "075118.952500",
        "075119.752500",
        "075120.552500",
        "075121.352500",
        "075122.152500",
        "075122.952500",
        "075123.752500",
        "075124.552500",
        "075125.352500",
        "075126.152500",
        "075126.952500",
        "075127.752500",
        "075128.552500",
        "075129.352500",
        "075130.152500",
        "075130.952500",
        "075131.752500",
        "075132.552500",
        "075133.352500",
        "075134.152500",
        "075134.952500",
        "075135.752500",
        "075136.552500",
        "075137.352500",
        "075138.152500",
        "075138.952500",
        "075139.752500",
        "075140.552500",
        "075141.352500",
        "075142.152500",
        "075142.952500",
        "075143.752500",
        "075144.552500",
        "075145.352500",
        "075146.152500",
        "075146.952500",
        "075147.752500",
        "075148.552500",
        "075149.352500",
        "075150.152500",
        "075150.952500",
        "075151.752500",
        "075152.552500",
        "075153.352500",
        "075154.152500",
        "075154.952500",
        "075155.752500",
        "075156.552500",
        "075157.352500",
        "075158.152500",
        "075158.952500",
        "075159.752500",
        "075200.552500",
        "075201.352500",
        "075202.152500",
        "075202.952500",
        "075203.752500",
        "075204.552500",
        "075205.352500",
        "075206.152500",
        "075206.952500",
        "075207.752500",
        "075208.552500",
        "075209.352500",
        "075210.152500",
        "075210.952500",
        "075211.752500",
        "075212.552500",
        "075213.352500",
        "075214.152500",
        "075214.952500",
        "075215.752500",
        "075216.552500",
        "075217.352500",
        "075218.152500",
        "075218.952500",
        "075219.752500",
        "075220.552500",
        "075221.352500",
        "075222.152500",
        "075222.952500",
        "075223.752500",
        "075224.552500",
        "075225.352500",
        "075226.152500",
        "075226.952500",
        "075227.752500",
        "075228.552500",
        "075229.352500",
        "075230.152500",
        "075230.952500",
        "075231.752500",
        "075232.552500",
        "075233.352500",
        "075234.152500",
        "075234.952500",
        "075235.752500",
        "075236.552500",
        "075237.352500",
        "075238.152500",
        "075238.952500",
        "075239.752500",
        "075240.552500",
        "075241.352500",
        "075242.152500",
        "075242.952500",
        "075243.752500",
        "075244.552500",
        "075245.352500",
        "075246.152500",
        "075246.952500",
        "075247.752500",
        "075248.552500",
        "075249.352500",
        "075250.152500",
        "075250.952500",
        "075251.752500",
        "075252.552500",
        "075253.352500",
        "075254.152500",
        "075254.952500",
        "075255.752500",
        "075256.552500",
        "075257.352500",
        "075258.152500",
        "075258.952500",
        "075259.752500",
        "075300.552500",
        "075301.352500",
        "075302.152500",
        "075302.952500",
        "075303.752500",
        "075304.552500",
        "075305.352500",
        "075306.152500",
        "075306.952500",
        "075307.752500",
        "075308.552500",
        "075309.352500",
        "075310.152500",
        "075310.952500",
        "075311.752500",
        "075312.552500",
        "075313.352500",
        "075314.152500",
        "075314.952500",
        "075315.752500",
        "075316.552500",
        "075317.352500",
        "075318.152500",
        "075318.952500",
        "075319.752500",
        "075320.552500",
        "075321.352500",
        "075322.152500",
        "075322.952500",
        "075323.752500",
        "075324.552500",
        "075325.352500",
        "075326.152500",
        "075326.952500",
        "075327.752500",
        "075328.552500",
        "075329.352500",
        "075330.152500",
        "075330.952500",
        "075331.752500",
        "075332.552500",
        "075333.352500",
        "075334.152500",
        "075334.952500",
        "075335.752500",
        "075336.552500",
        "075337.352500",
        "075338.152500",
        "075338.952500",
        "075339.752500",
        "075340.552500",
        "075341.352500",
        "075342.152500",
        "075342.952500",
        "075343.752500",
        "075344.552500",
        "075345.352500",
        "075346.152500",
        "075346.952500",
        "075347.752500",
        "075348.552500",
        "075349.352500",
        "075350.152500",
        "075350.952500",
        "075351.752500",
        "075352.552500",
        "075353.352500",
        "075354.152500",
        "075354.952500",
        "075355.752500",
        "075356.552500",
        "075357.352500",
        "075358.152500",
        "075358.952500",
        "075359.752500",
        "075400.552500",
        "075401.352500",
        "075402.152500",
        "075402.952500",
        "075403.752500",
        "075404.552500",
        "075405.352500",
        "075406.152500",
        "075406.952500",
        "075407.752500",
        "075408.552500",
        "075409.352500",
        "075410.152500",
        "075410.952500",
        "075411.752500",
        "075412.552500",
        "075413.352500",
        "075414.152500",
        "075414.952500",
        "075415.752500",
        "075416.552500",
        "075417.352500",
        "075418.152500",
        "075418.952500",
        "075419.752500",
        "075420.552500",
        "075421.352500",
        "075422.152500",
        "075422.952500",
        "075423.752500",
        "075424.552500",
        "075425.352500",
        "075426.152500",
        "075426.952500",
        "075427.752500",
        "075428.552500",
        "075429.352500",
        "075430.152500",
        "075430.952500",
        "075431.752500",
        "075432.552500",
        "075433.352500",
        "075434.152500",
        "075434.952500",
        "075435.752500",
        "075436.552500",
        "075437.352500",
        "075438.152500",
        "075438.952500",
        "075439.752500",
        "075440.552500",
        "075441.352500",
        "075442.152500",
        "075442.952500",
        "075443.752500",
        "075444.552500",
        "075445.352500",
        "075446.152500",
        "075446.952500",
        "075447.752500",
        "075448.552500",
        "075449.352500",
        "075450.152500",
        "075450.952500",
        "075451.752500",
        "075452.552500",
        "075453.352500",
        "075454.152500",
        "075454.952500",
        "075455.752500",
        "075456.552500",
        "075457.352500",
        "075458.152500",
        "075458.952500",
        "075459.752500",
        "075500.552500",
        "075501.352500",
        "075502.152500",
        "075502.952500",
        "075503.752500",
        "075504.552500",
        "075505.352500",
        "075506.152500",
        "075506.952500",
        "075507.752500",
        "075508.552500",
        "075509.352500",
        "075510.152500",
        "075510.952500",
        "075511.752500",
        "075512.552500",
        "075513.352500",
        "075514.152500",
        "075514.952500",
        "075515.752500",
        "075516.552500",
        "075517.352500",
        "075518.152500",
        "075518.952500",
        "075519.752500",
        "075520.552500",
        "075521.352500",
        "075522.152500",
        "075522.952500",
        "075523.752500",
        "075524.552500",
        "075525.352500",
        "075526.152500",
        "075526.952500",
        "075527.752500",
        "075528.552500",
        "075529.352500",
        "075530.152500",
        "075530.952500",
        "075531.752500",
        "075532.552500",
        "075533.352500",
        "075534.152500",
        "075534.952500",
        "075535.752500",
        "075536.552500",
        "075537.352500",
        "075538.152500",
        "075538.952500",
        "075539.752500",
        "075540.552500",
        "075541.352500",
        "075542.152500",
        "075542.952500",
        "075543.752500",
        "075544.552500",
        "075545.352500",
        "075546.152500",
        "075546.952500",
        "075547.752500",
        "075548.552500",
        "075549.352500",
        "075550.152500",
        "075550.952500",
        "075551.752500",
        "075552.552500",
        "075553.352500",
        "075554.152500",
        "075554.952500",
        "075555.752500",
        "075556.552500",
        "075557.352500",
        "075558.152500",
        "075558.952500",
        "075559.752500",
        "075600.552500",
        "075601.352500",
        "075602.152500",
        "075602.952500",
        "075603.752500",
        "075604.552500",
        "075605.352500",
        "075606.152500",
        "075606.952500",
        "075607.752500",
        "075608.552500",
        "075609.352500",
        "075610.152500",
        "075610.952500",
        "075611.752500",
        "075612.552500",
        "075613.352500",
        "075614.152500",
        "075614.952500",
        "075615.752500",
        "075616.552500",
        "075617.352500",
        "075618.152500",
        "075618.952500",
        "075619.752500",
        "075620.552500",
        "075621.352500",
        "075622.152500",
        "075622.952500",
        "075623.752500",
        "075624.552500",
        "075625.352500",
        "075626.152500",
        "075626.952500",
        "075627.752500",
        "075628.552500",
        "075629.352500",
        "075630.152500",
        "075630.952500",
        "075631.752500",
        "075632.552500",
        "075633.352500",
        "075634.152500",
        "075634.952500",
        "075635.752500",
        "075636.552500",
        "075637.352500",
        "075638.152500",
        "075638.952500",
        "075639.752500",
        "075640.552500",
        "075641.352500",
        "075642.152500",
        "075642.952500",
        "075643.752500",
        "075644.552500",
        "075645.352500",
        "075646.152500",
        "075646.952500",
        "075647.752500",
        "075648.552500",
        "075649.352500",
        "075650.152500",
        "075650.952500",
        "075651.752500",
        "075652.552500",
        "075653.352500",
        "075654.152500",
        "075654.952500",
        "075655.752500",
        "075656.552500",
        "075657.352500",
        "075658.152500",
        "075658.952500",
        "075659.752500",
        "075700.552500",
        "075701.352500",
        "075702.152500",
        "075702.952500",
        "075703.752500",
        "075704.552500",
        "075705.352500",
        "075706.152500",
        "075706.952500",
        "075707.752500",
        "075708.552500",
        "075709.352500",
        "075710.152500",
        "075710.952500",
        "075711.752500",
        "075712.552500",
        "075713.352500",
        "075714.152500",
        "075714.952500",
        "075715.752500",
        "075716.552500",
        "075717.352500",
        "075718.152500",
        "075718.952500",
        "075719.752500",
        "075720.552500",
        "075721.352500",
        "075722.152500",
        "075722.952500",
        "075723.752500",
        "075724.552500",
        "075725.352500",
        "075726.152500",
        "075726.952500",
        "075727.752500",
        "075728.552500",
        "075729.352500",
        "075730.152500",
        "075730.952500",
        "075731.752500",
        "075732.552500",
        "075733.352500",
        "075734.152500",
        "075734.952500",
        "075735.752500",
        "075736.552500",
        "075737.352500",
        "075738.152500",
        "075738.952500",
        "075739.752500",
        "075740.552500",
        "075741.352500",
        "075742.152500",
        "075742.952500",
        "075743.752500",
        "075744.552500",
        "075745.352500",
        "075746.152500",
        "075746.952500",
        "075747.752500",
        "075748.552500",
        "075749.352500",
        "075750.152500",
        "075750.952500",
        "075751.752500",
        "075752.552500",
        "075753.352500",
        "075754.152500",
        "075754.952500",
        "075755.752500",
        "075756.552500",
        "075757.352500",
        "075758.152500",
        "075758.952500",
        "075759.752500",
        "075800.552500",
        "075801.352500",
        "075802.152500",
        "075802.952500",
        "075803.752500",
        "075804.552500",
        "075805.352500",
        "075806.152500",
        "075806.952500",
        "075807.752500",
        "075808.552500",
        "075809.352500",
        "075810.152500",
        "075810.952500",
        "075811.752500",
        "075812.552500",
        "075813.352500",
        "075814.152500",
        "075814.952500",
        "075815.752500",
        "075816.552500",
        "075817.352500",
        "075818.152500",
        "075818.952500",
        "075819.752500",
        "075820.552500",
        "075821.352500",
        "075822.152500",
        "075822.952500",
        "075823.752500",
        "075824.552500",
        "075825.352500",
        "075826.152500",
        "075826.952500",
        "075827.752500",
        "075828.552500",
        "075829.352500",
        "075830.152500",
        "075830.952500",
        "075831.752500",
        "075832.552500",
        "075833.352500",
        "075834.152500",
        "075834.952500",
        "075835.752500",
        "075836.552500",
        "075837.352500",
        "075838.152500",
        "075838.952500",
        "075839.752500",
        "075840.552500",
        "075841.352500",
        "075842.152500",
        "075842.952500",
        "075843.752500",
        "075844.552500",
        "075845.352500",
        "075846.152500",
        "075846.952500",
        "075847.752500",
        "075848.552500",
        "075849.352500",
        "075850.152500",
        "075850.952500",
        "075851.752500",
        "075852.552500",
        "075853.352500",
        "075854.152500",
        "075854.952500",
        "075855.752500",
        "075856.552500",
        "075857.352500",
        "075858.152500",
        "075858.952500",
        "075859.752500",
        "075900.552500",
        "075901.352500",
        "075902.152500",
        "075902.952500",
        "075903.752500",
        "075904.552500",
        "075905.352500",
        "075906.152500",
        "075906.952500",
        "075907.752500",
        "075908.552500",
        "075909.352500",
        "075910.152500",
        "075910.952500",
        "075911.752500",
        "075912.552500",
        "075913.352500",
        "075914.152500",
        "075914.952500",
        "075915.752500",
        "075916.552500",
        "075917.352500"
      ],
      "ContentTime": [
        "075215.036000",
        "075215.040000",
        "075215.043000",
        "075215.046000",
        "075215.049000",
        "075215.052000",
        "075215.055000",
        "075215.058000",
        "075215.067000",
        "075215.070000",
        "075215.073000",
        "075215.076000",
        "075215.080000",
        "075215.083000",
        "075215.086000",
        "075215.090000",
        "075215.094000",
        "075215.097000",
        "075215.101000",
        "075215.105000",
        "075215.108000",
        "075215.111000",
        "075215.114000",
        "075215.117000",
        "075215.120000",
        "075215.123000",
        "075215.126000",
        "075215.129000",
        "075215.132000",
        "075215.135000",
        "075215.138000",
        "075215.147000",
        "075215.151000",
        "075215.154000",
        "075215.157000",
        "075215.159000",
        "075215.162000",
        "075215.165000",
        "075215.168000",
        "075215.171000",
        "075215.174000",
        "075215.177000",
        "075215.180000",
        "075215.183000",
        "075215.186000",
        "075215.189000",
        "075215.193000",
        "075215.197000",
        "075215.200000",
        "075215.203000",
        "075215.207000",
        "075215.214000",
        "075215.216000",
        "075215.219000",
        "075215.223000",
        "075215.226000",
        "075215.229000",
        "075215.232000",
        "075215.236000",
        "075215.239000",
        "075215.242000",
        "075235.010000",
        "075235.013000",
        "075235.016000",
        "075235.019000",
        "075235.022000",
        "075235.025000",
        "075235.028000",
        "075235.031000",
        "075235.034000",
        "075235.037000",
        "075235.040000",
        "075235.043000",
        "075235.046000",
        "075235.049000",
        "075235.052000",
        "075235.061000",
        "075235.064000",
        "075235.074000",
        "075235.077000",
        "075235.080000",
        "075235.083000",
        "075235.086000",
        "075235.089000",
        "075235.092000",
        "075235.095000",
        "075235.098000",
        "075235.101000",
        "075235.104000",
        "075235.107000",
        "075235.110000",
        "075235.113000",
        "075235.116000",
        "075235.119000",
        "075235.122000",
        "075255.010000",
        "075255.013000",
        "075255.016000",
        "075255.019000",
        "075255.022000",
        "075255.025000",
        "075255.028000",
        "075255.031000",
        "075255.034000",
        "075255.037000",
        "075255.040000",
        "075255.043000",
        "075255.046000",
        "075255.049000",
        "075255.052000",
        "075255.055000",
        "075255.058000",
        "075255.061000",
        "075255.063000",
        "075255.066000",
        "075255.069000",
        "075255.072000",
        "075255.075000",
        "075255.078000",
        "075255.081000",
        "075315.010000",
        "075315.013000",
