{
  "AcquisitionMatrixPE": 140,
  "AcquisitionNumber": 1,
  "AcquisitionTime": "19:06:16.205000",
  "BandwidthPerPixelPhaseEncode": 10.352,
  "BaseResolution": 140,
  "BodyPartExamined": "BRAIN",
  "CoilCombinationMethod": "Sum of Squares",
  "ConsistencyInfo": "N4_VE11C_LATEST_20160120",
  "ConversionSoftware": "dcm2niix",
  "ConversionSoftwareVersion": "v1.0.20220720",
  "DerivedVendorReportedEchoSpacing": 0.000689998,
  "DeviceSerialNumber": "67026",
  "DiffusionScheme": "Monopolar",
  "DwellTime": 2.1e-06,
  "EchoTime": 0.0892,
  "EchoTrainLength": 105,
  "EffectiveEchoSpacing": 0.000689998,
  "FlipAngle": 78,
  "HeudiconvVersion": "0.11.4",
  "ImageComments": "Unaliased MB4/PE3/LB SENSE1",
  "ImageOrientationPatientDICOM": [
    0.99713,
    0.0469906,
    0.0593555,
    -0.0186236,
    0.912204,
    -0.409312
  ],
  "ImageOrientationText": "Tra>Cor(-24.1)>Sag(4.2)",
  "ImageType": [
    "ORIGINAL",
    "PRIMARY",
    "DIFFUSION",
    "NONE",
    "MB",
    "ND",
    "MOSAIC"
  ],
  "ImagingFrequency": 123.198,
  "InPlanePhaseEncodingDirectionDICOM": "COL",
  "InstitutionAddress": "13th St. 149,Charlestown,MA,US,02129",
  "InstitutionName": "MGH PrismaFit-Bay4",
  "InstitutionalDepartmentName": "Martinos Center",
  "MRAcquisitionType": "2D",
  "MagneticFieldStrength": 3,
  "Manufacturer": "Siemens",
  "ManufacturersModelName": "Prisma_fit",
  "MatrixCoilMode": "SENSE",
  "Modality": "MR",
  "MultibandAccelerationFactor": 4,
  "NonlinearGradientCorrection": false,
  "PartialFourier": 0.75,
  "PatientPosition": "HFS",
  "PercentPhaseFOV": 100,
  "PercentSampling": 100,
  "PhaseEncodingDirection": "j-",
  "PhaseEncodingSteps": 105,
  "PhaseResolution": 1,
  "PixelBandwidth": 1700,
  "ProcedureStepDescription": "INVESTIGATORS^Greve",
  "ProtocolName": "dMRI_dir98_AP_Blue_Umbrella",
  "PulseSequenceDetails": "%CustomerSeq%\\hcp_mbep2d_diff",
  "ReceiveCoilActiveElements": "HEA;HEP",
  "ReceiveCoilName": "Head_32",
  "ReconMatrixPE": 140,
  "RepetitionTime": 3.23,
  "SAR": 0.205301,
  "ScanOptions": "PFP\\EXT",
  "ScanningSequence": "EP",
  "SequenceName": "ep_b5#1",
  "SequenceVariant": "SK\\SS",
  "SeriesDescription": "dMRI_dir98_AP_Blue_Umbrella",
  "SeriesNumber": 42,
  "ShimSetting": [
    -1192,
    -10512,
    -10143,
    521,
    162,
    101,
    -7,
    24
  ],
  "SliceThickness": 1.5,
  "SliceTiming": [
    0,
    1.675,
    0.14,
    1.815,
    0.28,
    1.955,
    0.42,
    2.0925,
    0.5575,
    2.2325,
    0.6975,
    2.3725,
    0.8375,
    2.5125,
    0.9775,
    2.6525,
    1.1175,
    2.7925,
    1.255,
    2.93,
    1.395,
    3.07,
    1.535,
    0,
    1.675,
    0.14,
    1.815,
    0.28,
    1.955,
    0.42,
    2.0925,
    0.5575,
    2.2325,
    0.6975,
    2.3725,
    0.8375,
    2.5125,
    0.9775,
    2.6525,
    1.1175,
    2.7925,
    1.255,
    2.93,
    1.395,
    3.07,
    1.535,
    0,
    1.675,
    0.14,
    1.815,
    0.28,
    1.955,
    0.42,
    2.0925,
    0.5575,
    2.2325,
    0.6975,
    2.3725,
    0.8375,
    2.5125,
    0.9775,
    2.6525,
    1.1175,
    2.7925,
    1.255,
    2.93,
    1.395,
    3.07,
    1.535,
    0,
    1.675,
    0.14,
    1.815,
    0.28,
    1.955,
    0.42,
    2.0925,
    0.5575,
    2.2325,
    0.6975,
    2.3725,
    0.8375,
    2.5125,
    0.9775,
    2.6525,
    1.1175,
    2.7925,
    1.255,
    2.93,
    1.395,
    3.07,
    1.535
  ],
  "SoftwareVersions": "syngo MR E11",
  "SpacingBetweenSlices": 1.5,
  "StationName": "BAY4OC",
  "TotalReadoutTime": 0.0959097,
  "TxRefAmp": 264.706,
  "WipMemBlock": "d6cef181-b20a-499e-86b7-88956589b22a||Sequence: ve11c/master r/5b0256d+; Dec  9 2016 09:48:43 by eja",
  "dcmmeta_affine": [
    [
      -1.4956954717636108,
      -0.02793542854487896,
      0.1100672259926796,
      107.20951080322266
    ],
    [
      -0.07048596441745758,
      1.3683066368103027,
      -0.6105477809906006,
      -49.07674026489258
    ],
    [
      0.08903320878744125,
      0.6139678359031677,
      1.3656927347183228,
      -75.36074829101562
    ],
    [
      0,
      0,
      0,
      1
    ]
  ],
  "dcmmeta_reorient_transform": [
    [
      0,
      -1,
      0,
      139
    ],
    [
      1,
      0,
      0,
      0
    ],
    [
      0,
      0,
      1,
      0
    ],
    [
      0,
      0,
      0,
      1
    ]
  ],
  "dcmmeta_shape": [
    140,
    140,
    92,
    99
  ],
  "dcmmeta_slice_dim": 2,
  "dcmmeta_version": 0.6,
  "time": {
    "samples": {
      "AcquisitionNumber": [
        1,
        2,
        3,
        4,
        5,
        6,
        7,
        8,
        9,
        10,
        11,
        12,
        13,
        14,
        15,
        16,
        17,
        18,
        19,
        20,
        21,
        22,
        23,
        24,
        25,
        26,
        27,
        28,
        29,
        30,
        31,
        32,
        33,
        34,
        35,
        36,
        37,
        38,
        39,
        40,
        41,
        42,
        43,
        44,
        45,
        46,
        47,
        48,
        49,
        50,
        51,
        52,
        53,
        54,
        55,
        56,
        57,
        58,
        59,
        60,
        61,
        62,
        63,
        64,
        65,
        66,
        67,
        68,
        69,
        70,
        71,
        72,
        73,
        74,
        75,
        76,
        77,
        78,
        79,
        80,
        81,
        82,
        83,
        84,
        85,
        86,
        87,
        88,
        89,
        90,
        91,
        92,
        93,
        94,
        95,
        96,
        97,
        98,
        99
      ],
      "AcquisitionTime": [
        "190616.205000",
        "190619.435000",
        "190622.665000",
        "190625.895000",
        "190629.125000",
        "190632.355000",
        "190635.585000",
        "190638.815000",
        "190642.045000",
        "190645.275000",
        "190648.505000",
        "190651.735000",
        "190654.965000",
        "190658.195000",
        "190701.425000",
        "190704.655000",
        "190707.885000",
        "190711.115000",
        "190714.345000",
        "190717.575000",
        "190720.805000",
        "190724.035000",
        "190727.265000",
        "190730.495000",
        "190733.725000",
        "190736.955000",
        "190740.185000",
        "190743.415000",
        "190746.645000",
        "190749.875000",
        "190753.105000",
        "190756.335000",
        "190759.565000",
        "190802.795000",
        "190806.025000",
        "190809.255000",
        "190812.485000",
        "190815.715000",
        "190818.945000",
        "190822.175000",
        "190825.405000",
        "190828.635000",
        "190831.865000",
        "190835.095000",
        "190838.325000",
        "190841.555000",
        "190844.785000",
        "190848.015000",
        "190851.245000",
        "190854.475000",
        "190857.705000",
        "190900.935000",
        "190904.165000",
        "190907.395000",
        "190910.625000",
        "190913.855000",
        "190917.085000",
        "190920.315000",
        "190923.545000",
        "190926.775000",
        "190930.005000",
        "190933.235000",
        "190936.465000",
        "190939.695000",
        "190942.925000",
        "190946.155000",
        "190949.385000",
        "190952.615000",
        "190955.845000",
        "190959.075000",
        "191002.305000",
        "191005.535000",
        "191008.765000",
        "191011.995000",
        "191015.225000",
        "191018.455000",
        "191021.685000",
        "191024.915000",
        "191028.145000",
        "191031.375000",
        "191034.605000",
        "191037.835000",
        "191041.065000",
        "191044.295000",
        "191047.525000",
        "191050.755000",
        "191053.985000",
        "191057.215000",
        "191100.445000",
        "191103.675000",
        "191106.905000",
        "191110.135000",
        "191113.365000",
        "191116.595000",
        "191119.825000",
        "191123.055000",
        "191126.285000",
        "191129.515000",
        "191132.745000"
      ],
      "ContentTime": [
        "190858.479000",
        "190858.483000",
        "190858.488000",
        "190858.492000",
        "190858.495000",
        "190858.499000",
        "190858.503000",
        "190858.506000",
        "190858.510000",
        "190858.514000",
        "190858.519000",
        "190858.522000",
        "190858.525000",
        "190858.529000",
        "190858.533000",
        "190858.537000",
        "190858.541000",
        "190858.544000",
        "190858.548000",
        "190858.551000",
        "190858.559000",
        "190858.562000",
        "190858.566000",
        "190858.570000",
        "190858.573000",
        "190858.577000",
        "190858.580000",
        "190858.584000",
        "190858.587000",
        "190858.591000",
        "190858.595000",
        "190858.599000",
        "190858.603000",
        "190858.606000",
        "190858.609000",
        "190858.613000",
        "190858.616000",
        "190858.620000",
        "190938.437000",
        "190938.441000",
        "190938.444000",
        "190938.448000",
        "190938.451000",
        "190938.454000",
        "190938.458000",
        "190938.461000",
        "190938.470000",
        "190938.474000",
        "190938.477000",
        "190938.480000",
        "190938.484000",
        "190938.487000",
        "190938.490000",
        "190938.494000",
        "190938.497000",
        "190938.501000",
        "190938.504000",
        "190938.507000",
        "190938.511000",
        "190938.514000",
        "190938.517000",
        "190938.520000",
        "191058.436000",
        "191058.440000",
        "191058.450000",
        "191058.453000",
        "191058.457000",
        "191058.460000",
        "191058.463000",
        "191058.467000",
        "191058.470000",
        "191058.473000",
        "191058.477000",
        "191058.480000",
        "191058.484000",
        "191058.487000",
        "191058.490000",
        "191058.494000",
        "191058.497000",
        "191058.500000",
        "191058.504000",
        "191058.508000",
        "191058.511000",
        "191058.515000",
        "191058.518000",
        "191058.522000",
        "191058.525000",
        "191136.544000",
        "191136.548000",
        "191136.551000",
        "191136.554000",
        "191136.562000",
        "191136.566000",
        "191136.569000",
        "191136.572000",
        "191136.576000",
        "191136.580000",
        "191136.583000",
        "191136.587000"
      ],
      "InstanceCreationTime": [
        "190858.479000",
        "190858.483000",
        "190858.488000",
        "190858.492000",
        "190858.495000",
        "190858.499000",
        "190858.503000",
        "190858.506000",
        "190858.510000",
        "190858.514000",
        "190858.519000",
        "190858.522000",
        "190858.525000",
        "190858.529000",
        "190858.533000",
        "190858.537000",
        "190858.541000",
        "190858.544000",
        "190858.548000",
        "190858.551000",
        "190858.559000",
        "190858.562000",
        "190858.566000",
        "190858.570000",
        "190858.573000",
        "190858.577000",
        "190858.580000",
        "190858.584000",
        "190858.587000",
        "190858.591000",
        "190858.595000",
        "190858.599000",
        "190858.603000",
        "190858.606000",
        "190858.609000",
        "190858.613000",
        "190858.616000",
        "190858.620000",
        "190938.437000",
        "190938.441000",
        "190938.444000",
        "190938.448000",
        "190938.451000",
        "190938.454000",
        "190938.458000",
        "190938.461000",
        "190938.470000",
        "190938.474000",
        "190938.477000",
        "190938.480000",
        "190938.484000",
        "190938.487000",
        "190938.490000",
        "190938.494000",
        "190938.497000",
        "190938.501000",
        "190938.504000",
        "190938.507000",
        "190938.511000",
        "190938.514000",
        "190938.517000",
        "190938.520000",
        "191058.436000",
        "191058.440000",
        "191058.450000",
        "191058.453000",
        "191058.457000",
        "191058.460000",
        "191058.463000",
        "191058.467000",
        "191058.470000",
        "191058.473000",
        "191058.477000",
        "191058.480000",
        "191058.484000",
        "191058.487000",
        "191058.490000",
        "191058.494000",
        "191058.497000",
        "191058.500000",
        "191058.504000",
        "191058.508000",
        "191058.511000",
        "191058.515000",
        "191058.518000",
        "191058.522000",
        "191058.525000",
        "191136.544000",
        "191136.548000",
        "191136.551000",
        "191136.554000",
        "191136.562000",
        "191136.566000",
        "191136.569000",
        "191136.572000",
        "191136.576000",
        "191136.580000",
        "191136.583000",
        "191136.587000"
      ],
      "InstanceNumber": [
        1,
        2,
        3,
        4,
        5,
        6,
        7,
        8,
        9,
        10,
        11,
        12,
        13,
        14,
        15,
        16,
        17,
        18,
        19,
        20,
        21,
        22,
        23,
        24,
        25,
        26,
        27,
        28,
        29,
        30,
        31,
        32,
        33,
        34,
        35,
        36,
        37,
        38,
        39,
        40,
        41,
        42,
        43,
        44,
        45,
        46,
        47,
        48,
        49,
        50,
        51,
        52,
        53,
        54,
        55,
        56,
        57,
        58,
        59,
        60,
        61,
        62,
        63,
        64,
        65,
        66,
        67,
        68,
        69,
        70,
        71,
        72,
        73,
        74,
        75,
        76,
        77,
        78,
        79,
        80,
        81,
        82,
        83,
        84,
        85,
        86,
        87,
        88,
        89,
        90,
        91,
        92,
        93,
        94,
        95,
        96,
        97,
        98,
        99
      ],
      "LargestImagePixelValue": [
        37173,
        35333,
        6257,
        2562,
        5829,
        2666,
        6038,
        3191,
        5516,
        2933,
        5556,
        2920,
        6210,
        2831,
        6525,
        3127,
        5390,
        38662,
        2807,
        6220,
        2852,
        5801,
        2982,
        5771,
        2543,
        6025,
        2627,
        5768,
        3176,
        5625,
        3089,
        5840,
        2636,
        38887,
        5914,
        2753,
        5809,
        2729,
        5429,
        2654,
        5905,
        2508,
        5916,
        2715,
        5807,
        2686,
        5698,
        3276,
        5719,
        39507,
        2645,
        5295,
        2735,
        6360,
        2963,
        5527,
        2983,
        6267,
        2953,
        5927,
        2578,
        6428,
        2893,
        6106,
        2630,
        36222,
        6088,
        2696,
        5369,
        2824,
        5561,
        2584,
        6198,
        2585,
        5722,
        2808,
        6293,
        2323,
        5379,
        2739,
        5512,
        37115,
        2649,
        5431,
        2658,
        6156,
        2896,
        5817,
        2736,
        5565,
        2754,
        5533,
        2539,
        6074,
        3090,
        5744,
        2744,
        6933,
        2524
      ],
      "SequenceName": [
        "ep_b5#1",
        "ep_b5#1",
        "ep_b1490#2",
        "ep_b2990#3",
        "ep_b1495#4",
        "ep_b3005#5",
        "ep_b1505#6",
        "ep_b2985#7",
        "ep_b1500#8",
        "ep_b3005#9",
        "ep_b1490#10",
        "ep_b2995#11",
        "ep_b1490#12",
        "ep_b2990#13",
        "ep_b1500#14",
        "ep_b2985#15",
        "ep_b1505#16",
        "ep_b5#17",
        "ep_b3005#18",
        "ep_b1490#19",
        "ep_b3000#20",
        "ep_b1495#21",
        "ep_b3000#22",
        "ep_b1495#23",
        "ep_b3000#24",
        "ep_b1490#25",
        "ep_b2980#26",
        "ep_b1505#27",
        "ep_b2990#28",
        "ep_b1495#29",
        "ep_b3000#30",
        "ep_b1490#31",
        "ep_b3000#32",
        "ep_b5#33",
        "ep_b1505#34",
        "ep_b3000#35",
        "ep_b1490#36",
        "ep_b2980#37",
        "ep_b1495#38",
        "ep_b2995#39",
        "ep_b1500#40",
        "ep_b2995#41",
        "ep_b1505#42",
        "ep_b2990#43",
        "ep_b1495#44",
        "ep_b3000#45",
        "ep_b1495#46",
        "ep_b3000#47",
        "ep_b1485#48",
        "ep_b5#49",
        "ep_b3005#50",
        "ep_b1495#51",
        "ep_b2995#52",
        "ep_b1505#53",
        "ep_b2995#54",
        "ep_b1490#55",
        "ep_b2990#56",
        "ep_b1490#57",
        "ep_b3000#58",
        "ep_b1500#59",
        "ep_b3000#60",
        "ep_b1505#61",
        "ep_b2985#62",
        "ep_b1500#63",
        "ep_b2990#64",
        "ep_b5#65",
        "ep_b1505#66",
        "ep_b3005#67",
        "ep_b1495#68",
        "ep_b3000#69",
        "ep_b1505#70",
        "ep_b3010#71",
        "ep_b1500#72",
        "ep_b3005#73",
        "ep_b1490#74",
        "ep_b2990#75",
        "ep_b1495#76",
        "ep_b2995#77",
        "ep_b1500#78",
        "ep_b3000#79",
        "ep_b1490#80",
        "ep_b5#81",
        "ep_b2990#82",
        "ep_b1500#83",
        "ep_b2985#84",
        "ep_b1495#85",
        "ep_b2995#86",
        "ep_b1495#87",
        "ep_b2990#88",
        "ep_b1490#89",
        "ep_b2980#90",
        "ep_b1500#91",
        "ep_b2995#92",
        "ep_b1495#93",
        "ep_b3005#94",
        "ep_b1500#95",
        "ep_b2990#96",
        "ep_b1500#97",
        "ep_b3000#98"
      ],
      "TriggerTime": [
        18780,
        22010,
        25240,
        28470,
        31700,
        34930,
        38160,
        41390,
        44620,
        47850,
        51080,
        54310,
        57540,
        60770,
        64000,
        67230,
        70460,
        73690,
        76920,
        80150,
        83380,
        86610,
        89840,
        93070,
        96300,
        99530,
        102760,
        105990,
        109220,
        112450,
        115680,
        118910,
        122140,
        125370,
        128600,
        131830,
        135060,
        138290,
        141520,
        144750,
        147980,
        151210,
        154440,
        157670,
        160900,
        164130,
        167360,
        170590,
        173820,
        177050,
        180280,
        183510,
        186740,
        189970,
        193200,
        196430,
        199660,
        202890,
        206120,
        209350,
        212580,
        215810,
        219040,
        222270,
        225500,
        228730,
        231960,
        235190,
        238420,
        241650,
        244880,
        248110,
        251340,
        254570,
        257800,
        261030,
        264260,
        267490,
        270720,
        273950,
        277180,
        280410,
        283640,
        286870,
        290100,
        293330,
        296560,
        299790,
        303020,
        306250,
        309480,
        312710,
        315940,
        319170,
        322400,
        325630,
        328860,
        332090,
        335320
      ],
      "WindowCenter": [
        4773,
        4765,
        1711,
        939,
        1711,
        941,
        1694,
        1012,
        1714,
        957,
        1669,
        978,
        1709,
        990,
        1723,
        992,
        1668,
        4843,
        971,
        1726,
        963,
        1695,
        981,
        1723,
        955,
        1695,
        931,
        1664,
        1016,
        1709,
        990,
        1708,
        943,
        4815,
        1665,
        964,
        1700,
        954,
        1682,
        957,
        1692,
        956,
        1666,
        947,
        1729,
        931,
        1710,
        1017,
        1697,
        4833,
        941,
        1695,
        971,
        1678,
        1004,
        1698,
        973,
        1709,
        961,
        1740,
        933,
        1695,
        957,
        1708,
        954,
        4766,
        1665,
        953,
        1713,
        961,
        1651,
        947,
        1709,
        926,
        1667,
        987,
        1725,
        919,
        1683,
        982,
        1668,
        4768,
        943,
        1682,
        934,
        1693,
        1005,
        1712,
        967,
        1670,
        955,
        1699,
        944,
        1708,
        994,
        1679,
        985,
        1707,
        929
      ],
      "WindowWidth": [
        10765,
        10795,
        4340,
        2569,
        4341,
        2550,
        4306,
        2738,
        4350,
        2592,
        4255,
        2653,
        4334,
        2696,
        4364,
        2683,
        4252,
        10903,
        2629,
        4374,
        2618,
        4308,
        2662,
        4363,
        2607,
        4307,
        2536,
        4234,
        2753,
        4338,
        2678,
        4335,
        2562,
        10840,
        4242,
        2618,
        4322,
        2578,
        4285,
        2615,
        4291,
        2609,
        4248,
        2576,
        4381,
        2537,
        4332,
        2756,
        4307,
        10858,
        2553,
        4312,
        2646,
        4267,
        2729,
        4318,
        2634,
        4334,
        2611,
        4398,
        2543,
        4306,
        2592,
        4336,
        2605,
        10759,
        4237,
        2599,
        4349,
        2611,
        4210,
        2576,
        4333,
        2520,
        4248,
        2686,
        4365,
        2528,
        4287,
        2666,
        4258,
        10762,
        2558,
        4281,
        2548,
        4298,
        2731,
        4340,
        2632,
        4259,
        2583,
        4316,
        2587,
        4332,
        2691,
        4274,
        2678,
        4328,
        2528
      ]
    },
    "slices": {}
  }
}
