{
  "AcquisitionMatrixPE": 140,
  "AcquisitionNumber": 1,
  "AcquisitionTime": "09:40:20.670000",
  "BandwidthPerPixelPhaseEncode": 10.352,
  "BaseResolution": 140,
  "BodyPartExamined": "BRAIN",
  "CoilCombinationMethod": "Sum of Squares",
  "ConsistencyInfo": "N4_VE11C_LATEST_20160120",
  "ConversionSoftware": "dcm2niix",
  "ConversionSoftwareVersion": "v1.0.20220720",
  "DerivedVendorReportedEchoSpacing": 0.000689998,
  "DeviceSerialNumber": "67026",
  "DiffusionScheme": "Monopolar",
  "DwellTime": 2.1e-06,
  "EchoTime": 0.0892,
  "EchoTrainLength": 105,
  "EffectiveEchoSpacing": 0.000689998,
  "FlipAngle": 78,
  "HeudiconvVersion": "0.11.4",
  "ImageComments": "Unaliased MB4/PE3/LB SENSE1",
  "ImageOrientationPatientDICOM": [
    0.992821,
    0.0136091,
    -0.11883,
    -0.0723857,
    0.859273,
    -0.50637
  ],
  "ImageOrientationText": "Tra>Cor(-30.9)>Sag(-5.5)",
  "ImageType": [
    "ORIGINAL",
    "PRIMARY",
    "DIFFUSION",
    "NONE",
    "MB",
    "ND",
    "MOSAIC"
  ],
  "ImagingFrequency": 123.177,
  "InPlanePhaseEncodingDirectionDICOM": "COL",
  "InstitutionAddress": "13th St. 149,Charlestown,MA,US,02129",
  "InstitutionName": "Martinos Center Bay 4 Prisma",
  "InstitutionalDepartmentName": "Martinos Center",
  "MRAcquisitionType": "2D",
  "MagneticFieldStrength": 3,
  "Manufacturer": "Siemens",
  "ManufacturersModelName": "Prisma_fit",
  "MatrixCoilMode": "SENSE",
  "Modality": "MR",
  "MultibandAccelerationFactor": 4,
  "NonlinearGradientCorrection": false,
  "PartialFourier": 0.75,
  "PatientPosition": "HFS",
  "PercentPhaseFOV": 100,
  "PercentSampling": 100,
  "PhaseEncodingDirection": "j-",
  "PhaseEncodingSteps": 105,
  "PhaseResolution": 1,
  "PixelBandwidth": 1700,
  "ProcedureStepDescription": "INVESTIGATORS^Greve",
  "ProtocolName": "dMRI_dir98_AP",
  "PulseSequenceDetails": "%CustomerSeq%\\hcp_mbep2d_diff",
  "ReceiveCoilActiveElements": "HEA;HEP",
  "ReceiveCoilName": "Head_32",
  "ReconMatrixPE": 140,
  "RepetitionTime": 3.23,
  "SAR": 0.155633,
  "ScanOptions": "PFP\\EXT",
  "ScanningSequence": "EP",
  "SequenceName": "ep_b5#1",
  "SequenceVariant": "SK\\SS",
  "SeriesDescription": "dMRI_dir98_AP",
  "SeriesNumber": 37,
  "ShimSetting": [
    -1243,
    -10491,
    -10158,
    534,
    173,
    -66,
    -30,
    7
  ],
  "SliceThickness": 1.5,
  "SliceTiming": [
    0,
    1.675,
    0.1375,
    1.8125,
    0.2775,
    1.9525,
    0.4175,
    2.0925,
    0.5575,
    2.2325,
    0.6975,
    2.3725,
    0.8375,
    2.51,
    0.975,
    2.65,
    1.115,
    2.79,
    1.255,
    2.93,
    1.395,
    3.07,
    1.535,
    0,
    1.675,
    0.1375,
    1.8125,
    0.2775,
    1.9525,
    0.4175,
    2.0925,
    0.5575,
    2.2325,
    0.6975,
    2.3725,
    0.8375,
    2.51,
    0.975,
    2.65,
    1.115,
    2.79,
    1.255,
    2.93,
    1.395,
    3.07,
    1.535,
    0,
    1.675,
    0.1375,
    1.8125,
    0.2775,
    1.9525,
    0.4175,
    2.0925,
    0.5575,
    2.2325,
    0.6975,
    2.3725,
    0.8375,
    2.51,
    0.975,
    2.65,
    1.115,
    2.79,
    1.255,
    2.93,
    1.395,
    3.07,
    1.535,
    0,
    1.675,
    0.1375,
    1.8125,
    0.2775,
    1.9525,
    0.4175,
    2.0925,
    0.5575,
    2.2325,
    0.6975,
    2.3725,
    0.8375,
    2.51,
    0.975,
    2.65,
    1.115,
    2.79,
    1.255,
    2.93,
    1.395,
    3.07,
    1.535
  ],
  "SoftwareVersions": "syngo MR E11",
  "SpacingBetweenSlices": 1.5,
  "StationName": "BAY4OC",
  "TotalReadoutTime": 0.0959097,
  "TxRefAmp": 256.306,
  "WipMemBlock": "5f35bb89-da75-4342-a88d-b02908066ae3||Sequence: ve11c/master r/5b0256d+; Dec  9 2016 09:48:43 by eja",
  "dcmmeta_affine": [
    [
      -1.4892319440841675,
      -0.10857852548360825,
      -0.1428246945142746,
      116.42543029785156
    ],
    [
      -0.02041366882622242,
      1.2889094352722168,
      -0.7670044898986816,
      -52.449031829833984
    ],
    [
      -0.17824554443359375,
      0.7595546841621399,
      1.2811343669891357,
      -88.58592987060547
    ],
    [
      0,
      0,
      0,
      1
    ]
  ],
  "dcmmeta_reorient_transform": [
    [
      0,
      -1,
      0,
      139
    ],
    [
      1,
      0,
      0,
      0
    ],
    [
      0,
      0,
      1,
      0
    ],
    [
      0,
      0,
      0,
      1
    ]
  ],
  "dcmmeta_shape": [
    140,
    140,
    92,
    99
  ],
  "dcmmeta_slice_dim": 2,
  "dcmmeta_version": 0.6,
  "time": {
    "samples": {
      "AcquisitionNumber": [
        1,
        2,
        3,
        4,
        5,
        6,
        7,
        8,
        9,
        10,
        11,
        12,
        13,
        14,
        15,
        16,
        17,
        18,
        19,
        20,
        21,
        22,
        23,
        24,
        25,
        26,
        27,
        28,
        29,
        30,
        31,
        32,
        33,
        34,
        35,
        36,
        37,
        38,
        39,
        40,
        41,
        42,
        43,
        44,
        45,
        46,
        47,
        48,
        49,
        50,
        51,
        52,
        53,
        54,
        55,
        56,
        57,
        58,
        59,
        60,
        61,
        62,
        63,
        64,
        65,
        66,
        67,
        68,
        69,
        70,
        71,
        72,
        73,
        74,
        75,
        76,
        77,
        78,
        79,
        80,
        81,
        82,
        83,
        84,
        85,
        86,
        87,
        88,
        89,
        90,
        91,
        92,
        93,
        94,
        95,
        96,
        97,
        98,
        99
      ],
      "AcquisitionTime": [
        "094020.670000",
        "094023.900000",
        "094027.130000",
        "094030.360000",
        "094033.590000",
        "094036.820000",
        "094040.050000",
        "094043.280000",
        "094046.510000",
        "094049.740000",
        "094052.970000",
        "094056.200000",
        "094059.430000",
        "094102.660000",
        "094105.890000",
        "094109.120000",
        "094112.350000",
        "094115.580000",
        "094118.810000",
        "094122.040000",
        "094125.270000",
        "094128.500000",
        "094131.730000",
        "094134.960000",
        "094138.190000",
        "094141.420000",
        "094144.650000",
        "094147.880000",
        "094151.110000",
        "094154.340000",
        "094157.570000",
        "094200.800000",
        "094204.030000",
        "094207.260000",
        "094210.490000",
        "094213.720000",
        "094216.950000",
        "094220.180000",
        "094223.410000",
        "094226.640000",
        "094229.870000",
        "094233.100000",
        "094236.330000",
        "094239.560000",
        "094242.790000",
        "094246.020000",
        "094249.250000",
        "094252.480000",
        "094255.710000",
        "094258.940000",
        "094302.170000",
        "094305.400000",
        "094308.630000",
        "094311.860000",
        "094315.090000",
        "094318.320000",
        "094321.550000",
        "094324.780000",
        "094328.010000",
        "094331.240000",
        "094334.470000",
        "094337.700000",
        "094340.930000",
        "094344.160000",
        "094347.390000",
        "094350.620000",
        "094353.850000",
        "094357.080000",
        "094400.310000",
        "094403.540000",
        "094406.770000",
        "094410.000000",
        "094413.230000",
        "094416.460000",
        "094419.690000",
        "094422.920000",
        "094426.150000",
        "094429.380000",
        "094432.610000",
        "094435.840000",
        "094439.070000",
        "094442.300000",
        "094445.530000",
        "094448.760000",
        "094451.990000",
        "094455.220000",
        "094458.450000",
        "094501.680000",
        "094504.910000",
        "094508.140000",
        "094511.370000",
        "094514.600000",
        "094517.830000",
        "094521.060000",
        "094524.290000",
        "094527.520000",
        "094530.750000",
        "094533.980000",
        "094537.210000"
      ],
      "ContentTime": [
        "094145.470000",
        "094145.474000",
        "094145.477000",
        "094145.481000",
        "094145.484000",
        "094145.488000",
        "094145.491000",
        "094145.495000",
        "094145.498000",
        "094145.501000",
        "094145.505000",
        "094145.508000",
        "094145.512000",
        "094145.515000",
        "094145.518000",
        "094145.522000",
        "094145.525000",
        "094145.528000",
        "094145.532000",
        "094145.541000",
        "094145.544000",
        "094145.548000",
        "094145.551000",
        "094145.555000",
        "094145.558000",
        "094305.422000",
        "094305.425000",
        "094305.429000",
        "094305.432000",
        "094305.435000",
        "094305.439000",
        "094305.442000",
        "094305.446000",
        "094305.449000",
        "094305.453000",
        "094305.456000",
        "094305.475000",
        "094305.478000",
        "094305.481000",
        "094305.485000",
        "094305.488000",
        "094305.491000",
        "094305.495000",
        "094305.498000",
        "094305.502000",
        "094305.505000",
        "094305.508000",
        "094305.512000",
        "094305.515000",
        "094305.518000",
        "094425.421000",
        "094425.425000",
        "094425.429000",
        "094425.432000",
        "094425.435000",
        "094425.439000",
        "094425.442000",
        "094425.445000",
        "094425.449000",
        "094425.452000",
        "094425.456000",
        "094425.459000",
        "094425.462000",
        "094425.466000",
        "094425.469000",
        "094425.472000",
        "094425.476000",
        "094425.479000",
        "094425.483000",
        "094425.486000",
        "094425.489000",
        "094425.493000",
        "094425.496000",
        "094425.499000",
        "094425.503000",
        "094445.421000",
        "094445.425000",
        "094445.429000",
        "094445.432000",
        "094445.435000",
        "094445.439000",
        "094541.295000",
        "094541.299000",
        "094541.302000",
        "094541.306000",
        "094541.309000",
        "094541.312000",
        "094541.316000",
        "094541.319000",
        "094541.322000",
        "094541.326000",
        "094541.329000",
        "094541.333000",
        "094541.336000",
        "094541.339000",
        "094541.343000",
        "094541.346000",
        "094541.350000",
        "094541.353000"
      ],
      "InstanceCreationTime": [
        "094145.470000",
        "094145.474000",
        "094145.477000",
        "094145.481000",
        "094145.484000",
        "094145.488000",
        "094145.491000",
        "094145.495000",
        "094145.498000",
        "094145.501000",
        "094145.505000",
        "094145.508000",
        "094145.512000",
        "094145.515000",
        "094145.518000",
        "094145.522000",
        "094145.525000",
        "094145.528000",
        "094145.532000",
        "094145.541000",
        "094145.544000",
        "094145.548000",
        "094145.551000",
        "094145.555000",
        "094145.558000",
        "094305.422000",
        "094305.425000",
        "094305.429000",
        "094305.432000",
        "094305.435000",
        "094305.439000",
        "094305.442000",
        "094305.446000",
        "094305.449000",
        "094305.453000",
        "094305.456000",
        "094305.475000",
        "094305.478000",
        "094305.481000",
        "094305.485000",
        "094305.488000",
        "094305.491000",
        "094305.495000",
        "094305.498000",
        "094305.502000",
        "094305.505000",
        "094305.508000",
        "094305.512000",
        "094305.515000",
        "094305.518000",
        "094425.421000",
        "094425.425000",
        "094425.429000",
        "094425.432000",
        "094425.435000",
        "094425.439000",
        "094425.442000",
        "094425.445000",
        "094425.449000",
        "094425.452000",
        "094425.456000",
        "094425.459000",
        "094425.462000",
        "094425.466000",
        "094425.469000",
        "094425.472000",
        "094425.476000",
        "094425.479000",
        "094425.483000",
        "094425.486000",
        "094425.489000",
        "094425.493000",
        "094425.496000",
        "094425.499000",
        "094425.503000",
        "094445.421000",
        "094445.425000",
        "094445.429000",
        "094445.432000",
        "094445.435000",
        "094445.439000",
        "094541.295000",
        "094541.299000",
        "094541.302000",
        "094541.306000",
        "094541.309000",
        "094541.312000",
        "094541.316000",
        "094541.319000",
        "094541.322000",
        "094541.326000",
        "094541.329000",
        "094541.333000",
        "094541.336000",
        "094541.339000",
        "094541.343000",
        "094541.346000",
        "094541.350000",
        "094541.353000"
      ],
      "InstanceNumber": [
        1,
        2,
        3,
        4,
        5,
        6,
        7,
        8,
        9,
        10,
        11,
        12,
        13,
        14,
        15,
        16,
        17,
        18,
        19,
        20,
        21,
        22,
        23,
        24,
        25,
        26,
        27,
        28,
        29,
        30,
        31,
        32,
        33,
        34,
        35,
        36,
        37,
        38,
        39,
        40,
        41,
        42,
        43,
        44,
        45,
        46,
        47,
        48,
        49,
        50,
        51,
        52,
        53,
        54,
        55,
        56,
        57,
        58,
        59,
        60,
        61,
        62,
        63,
        64,
        65,
        66,
        67,
        68,
        69,
        70,
        71,
        72,
        73,
        74,
        75,
        76,
        77,
        78,
        79,
        80,
        81,
        82,
        83,
        84,
        85,
        86,
        87,
        88,
        89,
        90,
        91,
        92,
        93,
        94,
        95,
        96,
        97,
        98,
        99
      ],
      "LargestImagePixelValue": [
        22381,
        21721,
        6470,
        2414,
        4768,
        3710,
        5009,
        2758,
        4591,
        4552,
        6316,
        2826,
        5438,
        2657,
        5550,
        2547,
        5078,
        20127,
        3637,
        5249,
        2733,
        4890,
        2770,
        4980,
        2513,
        5574,
        3352,
        5675,
        2609,
        4069,
        3345,
        4846,
        2390,
        21303,
        6371,
        2446,
        4915,
        4176,
        5165,
        2365,
        4533,
        2366,
        5091,
        2459,
        4469,
        3002,
        4741,
        2560,
        5129,
        22464,
        2463,
        4764,
        2460,
        6885,
        2731,
        4180,
        2820,
        5523,
        3199,
        4550,
        2501,
        5776,
        4678,
        5100,
        2648,
        20594,
        6741,
        2515,
        4731,
        2639,
        5030,
        2532,
        5298,
        2952,
        5495,
        2396,
        5969,
        2429,
        4732,
        2708,
        5109,
        20987,
        3294,
        4467,
        2358,
        5531,
        2731,
        5289,
        2440,
        6481,
        3564,
        4931,
        2259,
        4553,
        2993,
        4940,
        2791,
        6286,
        2704
      ],
      "SequenceName": [
        "ep_b5#1",
        "ep_b5#1",
        "ep_b1490#2",
        "ep_b2990#3",
        "ep_b1495#4",
        "ep_b3005#5",
        "ep_b1505#6",
        "ep_b2985#7",
        "ep_b1495#8",
        "ep_b3005#9",
        "ep_b1490#10",
        "ep_b2990#11",
        "ep_b1495#12",
        "ep_b2990#13",
        "ep_b1500#14",
        "ep_b2985#15",
        "ep_b1500#16",
        "ep_b5#17",
        "ep_b3005#18",
        "ep_b1490#19",
        "ep_b3000#20",
        "ep_b1495#21",
        "ep_b2995#22",
        "ep_b1495#23",
        "ep_b3000#24",
        "ep_b1490#25",
        "ep_b2980#26",
        "ep_b1505#27",
        "ep_b2995#28",
        "ep_b1495#29",
        "ep_b3005#30",
        "ep_b1490#31",
        "ep_b3000#32",
        "ep_b5#33",
        "ep_b1505#34",
        "ep_b3000#35",
        "ep_b1490#36",
        "ep_b2980#37",
        "ep_b1495#38",
        "ep_b3000#39",
        "ep_b1500#40",
        "ep_b2995#41",
        "ep_b1505#42",
        "ep_b2990#43",
        "ep_b1495#44",
        "ep_b3000#45",
        "ep_b1495#46",
        "ep_b3000#47",
        "ep_b1490#48",
        "ep_b5#49",
        "ep_b3005#50",
        "ep_b1495#51",
        "ep_b2995#52",
        "ep_b1505#53",
        "ep_b2995#54",
        "ep_b1490#55",
        "ep_b2990#56",
        "ep_b1490#57",
        "ep_b3000#58",
        "ep_b1500#59",
        "ep_b3000#60",
        "ep_b1505#61",
        "ep_b2985#62",
        "ep_b1500#63",
        "ep_b2990#64",
        "ep_b5#65",
        "ep_b1505#66",
        "ep_b3005#67",
        "ep_b1495#68",
        "ep_b3005#69",
        "ep_b1505#70",
        "ep_b3005#71",
        "ep_b1500#72",
        "ep_b3005#73",
        "ep_b1490#74",
        "ep_b2995#75",
        "ep_b1490#76",
        "ep_b2995#77",
        "ep_b1500#78",
        "ep_b3000#79",
        "ep_b1490#80",
        "ep_b5#81",
        "ep_b2990#82",
        "ep_b1500#83",
        "ep_b2985#84",
        "ep_b1495#85",
        "ep_b2995#86",
        "ep_b1495#87",
        "ep_b2990#88",
        "ep_b1490#89",
        "ep_b2980#90",
        "ep_b1495#91",
        "ep_b2995#92",
        "ep_b1495#93",
        "ep_b3005#94",
        "ep_b1500#95",
        "ep_b2990#96",
        "ep_b1500#97",
        "ep_b3000#98"
      ],
      "TriggerTime": [
        18777.5,
        22007.5,
        25237.5,
        28467.5,
        31697.5,
        34927.5,
        38157.5,
        41387.5,
        44617.5,
        47847.5,
        51077.5,
        54307.5,
        57537.5,
        60767.5,
        63997.5,
        67227.5,
        70457.5,
        73687.5,
        76917.5,
        80147.5,
        83377.5,
        86607.5,
        89837.5,
        93067.5,
        96297.5,
        99527.5,
        102757.5,
        105987.5,
        109217.5,
        112447.5,
        115677.5,
        118907.5,
        122137.5,
        125367.5,
        128597.5,
        131827.5,
        135057.5,
        138287.5,
        141517.5,
        144747.5,
        147977.5,
        151207.5,
        154437.5,
        157667.5,
        160897.5,
        164127.5,
        167357.5,
        170587.5,
        173817.5,
        177047.5,
        180277.5,
        183507.5,
        186737.5,
        189967.5,
        193197.5,
        196427.5,
        199657.5,
        202887.5,
        206117.5,
        209347.5,
        212577.5,
        215807.5,
        219037.5,
        222267.5,
        225497.5,
        228727.5,
        231957.5,
        235187.5,
        238417.5,
        241647.5,
        244877.5,
        248107.5,
        251337.5,
        254567.5,
        257797.5,
        261027.5,
        264257.5,
        267487.5,
        270717.5,
        273947.5,
        277177.5,
        280407.5,
        283637.5,
        286867.5,
        290097.5,
        293327.5,
        296557.5,
        299787.5,
        303017.5,
        306247.5,
        309477.5,
        312707.5,
        315937.5,
        319167.5,
        322397.5,
        325627.5,
        328857.5,
        332087.5,
        335317.5
      ],
      "WindowCenter": [
        4622,
        4694,
        1591,
        891,
        1547,
        961,
        1556,
        906,
        1537,
        985,
        1577,
        919,
        1586,
        896,
        1520,
        874,
        1493,
        4651,
        936,
        1555,
        896,
        1510,
        885,
        1511,
        880,
        1484,
        888,
        1500,
        878,
        1471,
        891,
        1463,
        833,
        4400,
        1525,
        855,
        1464,
        950,
        1474,
        838,
        1481,
        833,
        1506,
        869,
        1466,
        893,
        1512,
        858,
        1519,
        4519,
        853,
        1525,
        860,
        1506,
        884,
        1455,
        897,
        1519,
        891,
        1502,
        871,
        1518,
        983,
        1571,
        880,
        4670,
        1560,
        874,
        1514,
        869,
        1508,
        874,
        1520,
        875,
        1471,
        836,
        1532,
        883,
        1513,
        857,
        1473,
        4438,
        918,
        1487,
        826,
        1533,
        889,
        1492,
        854,
        1530,
        914,
        1482,
        836,
        1485,
        897,
        1509,
        885,
        1507,
        854
      ],
      "WindowWidth": [
        10428,
        10595,
        4029,
        2450,
        3963,
        2596,
        3972,
        2487,
        3946,
        2644,
        3997,
        2518,
        4037,
        2469,
        3889,
        2410,
        3833,
        10533,
        2542,
        3969,
        2453,
        3872,
        2433,
        3879,
        2429,
        3802,
        2425,
        3833,
        2423,
        3801,
        2436,
        3770,
        2310,
        10044,
        3882,
        2356,
        3773,
        2558,
        3790,
        2329,
        3815,
        2311,
        3860,
        2392,
        3784,
        2441,
        3882,
        2373,
        3883,
        10238,
        2350,
        3906,
        2375,
        3836,
        2430,
        3763,
        2458,
        3882,
        2437,
        3867,
        2396,
        3880,
        2638,
        4007,
        2429,
        10548,
        3959,
        2406,
        3889,
        2390,
        3864,
        2408,
        3888,
        2395,
        3773,
        2323,
        3906,
        2440,
        3885,
        2364,
        3785,
        10105,
        2496,
        3832,
        2284,
        3911,
        2449,
        3830,
        2354,
        3898,
        2481,
        3818,
        2321,
        3832,
        2460,
        3867,
        2431,
        3843,
        2353
      ]
    },
    "slices": {}
  }
}
