{
  "AcquisitionMatrixPE": 104,
  "AcquisitionNumber": 1,
  "AcquisitionTime": "15:31:15.685000",
  "BandwidthPerPixelPhaseEncode": 16.578,
  "BaseResolution": 104,
  "BodyPartExamined": "BRAIN",
  "CoilCombinationMethod": "Sum of Squares",
  "ConsistencyInfo": "N4_VE11C_LATEST_20160120",
  "ConversionSoftware": "dcm2niix",
  "ConversionSoftwareVersion": "v1.0.20220720",
  "DerivedVendorReportedEchoSpacing": 0.000580009,
  "DeviceSerialNumber": "67026",
  "DwellTime": 2.1e-06,
  "EchoTime": 0.037,
  "EchoTrainLength": 104,
  "EffectiveEchoSpacing": 0.000580009,
  "FlipAngle": 52,
  "HeudiconvVersion": "0.11.4",
  "ImageComments": "Unaliased MB8/PE3/LB",
  "ImageOrientationPatientDICOM": [
    0.999846,
    -0.0163356,
    0.00643095,
    0.0172778,
    0.980551,
    -0.195504
  ],
  "ImageOrientationText": "Tra>Cor(-11.3)>Sag(0.2)",
  "ImageType": [
    "ORIGINAL",
    "PRIMARY",
    "M",
    "MB",
    "ND",
    "MOSAIC"
  ],
  "ImagingFrequency": 123.192,
  "InPlanePhaseEncodingDirectionDICOM": "COL",
  "InstitutionAddress": "13th St. 149,Charlestown,MA,US,02129",
  "InstitutionName": "Martinos Center Bay 4 Prisma",
  "InstitutionalDepartmentName": "Martinos Center",
  "MRAcquisitionType": "2D",
  "MagneticFieldStrength": 3,
  "Manufacturer": "Siemens",
  "ManufacturersModelName": "Prisma_fit",
  "MatrixCoilMode": "SENSE",
  "Modality": "MR",
  "MultibandAccelerationFactor": 8,
  "NonlinearGradientCorrection": false,
  "PartialFourier": 1,
  "PatientPosition": "HFS",
  "PercentPhaseFOV": 100,
  "PercentSampling": 100,
  "PhaseEncodingDirection": "j-",
  "PhaseEncodingSteps": 104,
  "PhaseResolution": 1,
  "PixelBandwidth": 2290,
  "ProcedureStepDescription": "INVESTIGATORS^Greve",
  "ProtocolName": "rfMRI_REST_AP",
  "PulseSequenceDetails": "%CustomerSeq%\\hcp_mbep2d_bold",
  "ReceiveCoilActiveElements": "HEA;HEP",
  "ReceiveCoilName": "Head_32",
  "ReconMatrixPE": 104,
  "RepetitionTime": 0.8,
  "SAR": 0.0730733,
  "ScanOptions": "FS\\EXT",
  "ScanningSequence": "EP",
  "SequenceName": "epfid2d1_104",
  "SequenceVariant": "SK\\SS",
  "SeriesDescription": "rfMRI_REST_AP",
  "SeriesNumber": 19,
  "ShimSetting": [
    -1225,
    -10547,
    -10176,
    332,
    143,
    138,
    10,
    -10
  ],
  "SliceThickness": 2,
  "SliceTiming": [
    0,
    0.435,
    0.0875,
    0.52,
    0.175,
    0.6075,
    0.26,
    0.695,
    0.3475,
    0,
    0.435,
    0.0875,
    0.52,
    0.175,
    0.6075,
    0.26,
    0.695,
    0.3475,
    0,
    0.435,
    0.0875,
    0.52,
    0.175,
    0.6075,
    0.26,
    0.695,
    0.3475,
    0,
    0.435,
    0.0875,
    0.52,
    0.175,
    0.6075,
    0.26,
    0.695,
    0.3475,
    0,
    0.435,
    0.0875,
    0.52,
    0.175,
    0.6075,
    0.26,
    0.695,
    0.3475,
    0,
    0.435,
    0.0875,
    0.52,
    0.175,
    0.6075,
    0.26,
    0.695,
    0.3475,
    0,
    0.435,
    0.0875,
    0.52,
    0.175,
    0.6075,
    0.26,
    0.695,
    0.3475,
    0,
    0.435,
    0.0875,
    0.52,
    0.175,
    0.6075,
    0.26,
    0.695,
    0.3475
  ],
  "SoftwareVersions": "syngo MR E11",
  "SpacingBetweenSlices": 2,
  "StationName": "BAY4OC",
  "TaskName": "rest",
  "TotalReadoutTime": 0.0597409,
  "TxRefAmp": 262.433,
  "WipMemBlock": "ff4e19d7-e71f-4631-94ca-0e7319553b47||Sequence: ve11c/master r/5b0256d+; Dec  9 2016 09:38:51 by eja",
  "dcmmeta_affine": [
    [
      -1.9996917247772217,
      0.03455565497279167,
      0.006224401760846376,
      104.6148910522461
    ],
    [
      0.03267120569944382,
      1.9611014127731323,
      -0.39116987586021423,
      -72.5904312133789
    ],
    [
      0.012861906550824642,
      0.3910079002380371,
      1.961363673210144,
      -75.5930404663086
    ],
    [
      0,
      0,
      0,
      1
    ]
  ],
  "dcmmeta_reorient_transform": [
    [
      0,
      -1,
      0,
      103
    ],
    [
      1,
      0,
      0,
      0
    ],
    [
      0,
      0,
      1,
      0
    ],
    [
      0,
      0,
      0,
      1
    ]
  ],
  "dcmmeta_shape": [
    104,
    104,
    72,
    600
  ],
  "dcmmeta_slice_dim": 2,
  "dcmmeta_version": 0.6,
  "time": {
    "samples": {
      "AcquisitionNumber": [
        1,
        2,
        3,
        4,
        5,
        6,
        7,
        8,
        9,
        10,
        11,
        12,
        13,
        14,
        15,
        16,
        17,
        18,
        19,
        20,
        21,
        22,
        23,
        24,
        25,
        26,
        27,
        28,
        29,
        30,
        31,
        32,
        33,
        34,
        35,
        36,
        37,
        38,
        39,
        40,
        41,
        42,
        43,
        44,
        45,
        46,
        47,
        48,
        49,
        50,
        51,
        52,
        53,
        54,
        55,
        56,
        57,
        58,
        59,
        60,
        61,
        62,
        63,
        64,
        65,
        66,
        67,
        68,
        69,
        70,
        71,
        72,
        73,
        74,
        75,
        76,
        77,
        78,
        79,
        80,
        81,
        82,
        83,
        84,
        85,
        86,
        87,
        88,
        89,
        90,
        91,
        92,
        93,
        94,
        95,
        96,
        97,
        98,
        99,
        100,
        101,
        102,
        103,
        104,
        105,
        106,
        107,
        108,
        109,
        110,
        111,
        112,
        113,
        114,
        115,
        116,
        117,
        118,
        119,
        120,
        121,
        122,
        123,
        124,
        125,
        126,
        127,
        128,
        129,
        130,
        131,
        132,
        133,
        134,
        135,
        136,
        137,
        138,
        139,
        140,
        141,
        142,
        143,
        144,
        145,
        146,
        147,
        148,
        149,
        150,
        151,
        152,
        153,
        154,
        155,
        156,
        157,
        158,
        159,
        160,
        161,
        162,
        163,
        164,
        165,
        166,
        167,
        168,
        169,
        170,
        171,
        172,
        173,
        174,
        175,
        176,
        177,
        178,
        179,
        180,
        181,
        182,
        183,
        184,
        185,
        186,
        187,
        188,
        189,
        190,
        191,
        192,
        193,
        194,
        195,
        196,
        197,
        198,
        199,
        200,
        201,
        202,
        203,
        204,
        205,
        206,
        207,
        208,
        209,
        210,
        211,
        212,
        213,
        214,
        215,
        216,
        217,
        218,
        219,
        220,
        221,
        222,
        223,
        224,
        225,
        226,
        227,
        228,
        229,
        230,
        231,
        232,
        233,
        234,
        235,
        236,
        237,
        238,
        239,
        240,
        241,
        242,
        243,
        244,
        245,
        246,
        247,
        248,
        249,
        250,
        251,
        252,
        253,
        254,
        255,
        256,
        257,
        258,
        259,
        260,
        261,
        262,
        263,
        264,
        265,
        266,
        267,
        268,
        269,
        270,
        271,
        272,
        273,
        274,
        275,
        276,
        277,
        278,
        279,
        280,
        281,
        282,
        283,
        284,
        285,
        286,
        287,
        288,
        289,
        290,
        291,
        292,
        293,
        294,
        295,
        296,
        297,
        298,
        299,
        300,
        301,
        302,
        303,
        304,
        305,
        306,
        307,
        308,
        309,
        310,
        311,
        312,
        313,
        314,
        315,
        316,
        317,
        318,
        319,
        320,
        321,
        322,
        323,
        324,
        325,
        326,
        327,
        328,
        329,
        330,
        331,
        332,
        333,
        334,
        335,
        336,
        337,
        338,
        339,
        340,
        341,
        342,
        343,
        344,
        345,
        346,
        347,
        348,
        349,
        350,
        351,
        352,
        353,
        354,
        355,
        356,
        357,
        358,
        359,
        360,
        361,
        362,
        363,
        364,
        365,
        366,
        367,
        368,
        369,
        370,
        371,
        372,
        373,
        374,
        375,
        376,
        377,
        378,
        379,
        380,
        381,
        382,
        383,
        384,
        385,
        386,
        387,
        388,
        389,
        390,
        391,
        392,
        393,
        394,
        395,
        396,
        397,
        398,
        399,
        400,
        401,
        402,
        403,
        404,
        405,
        406,
        407,
        408,
        409,
        410,
        411,
        412,
        413,
        414,
        415,
        416,
        417,
        418,
        419,
        420,
        421,
        422,
        423,
        424,
        425,
        426,
        427,
        428,
        429,
        430,
        431,
        432,
        433,
        434,
        435,
        436,
        437,
        438,
        439,
        440,
        441,
        442,
        443,
        444,
        445,
        446,
        447,
        448,
        449,
        450,
        451,
        452,
        453,
        454,
        455,
        456,
        457,
        458,
        459,
        460,
        461,
        462,
        463,
        464,
        465,
        466,
        467,
        468,
        469,
        470,
        471,
        472,
        473,
        474,
        475,
        476,
        477,
        478,
        479,
        480,
        481,
        482,
        483,
        484,
        485,
        486,
        487,
        488,
        489,
        490,
        491,
        492,
        493,
        494,
        495,
        496,
        497,
        498,
        499,
        500,
        501,
        502,
        503,
        504,
        505,
        506,
        507,
        508,
        509,
        510,
        511,
        512,
        513,
        514,
        515,
        516,
        517,
        518,
        519,
        520,
        521,
        522,
        523,
        524,
        525,
        526,
        527,
        528,
        529,
        530,
        531,
        532,
        533,
        534,
        535,
        536,
        537,
        538,
        539,
        540,
        541,
        542,
        543,
        544,
        545,
        546,
        547,
        548,
        549,
        550,
        551,
        552,
        553,
        554,
        555,
        556,
        557,
        558,
        559,
        560,
        561,
        562,
        563,
        564,
        565,
        566,
        567,
        568,
        569,
        570,
        571,
        572,
        573,
        574,
        575,
        576,
        577,
        578,
        579,
        580,
        581,
        582,
        583,
        584,
        585,
        586,
        587,
        588,
        589,
        590,
        591,
        592,
        593,
        594,
        595,
        596,
        597,
        598,
        599,
        600
      ],
      "AcquisitionTime": [
        "153115.685000",
        "153116.485000",
        "153117.285000",
        "153118.085000",
        "153118.885000",
        "153119.685000",
        "153120.485000",
        "153121.285000",
        "153122.085000",
        "153122.885000",
        "153123.685000",
        "153124.485000",
        "153125.285000",
        "153126.085000",
        "153126.885000",
        "153127.685000",
        "153128.485000",
        "153129.285000",
        "153130.085000",
        "153130.885000",
        "153131.685000",
        "153132.485000",
        "153133.285000",
        "153134.085000",
        "153134.885000",
        "153135.685000",
        "153136.485000",
        "153137.285000",
        "153138.085000",
        "153138.885000",
        "153139.685000",
        "153140.485000",
        "153141.285000",
        "153142.085000",
        "153142.885000",
        "153143.685000",
        "153144.485000",
        "153145.285000",
        "153146.085000",
        "153146.885000",
        "153147.685000",
        "153148.485000",
        "153149.285000",
        "153150.085000",
        "153150.885000",
        "153151.685000",
        "153152.485000",
        "153153.285000",
        "153154.085000",
        "153154.885000",
        "153155.685000",
        "153156.485000",
        "153157.285000",
        "153158.085000",
        "153158.885000",
        "153159.685000",
        "153200.485000",
        "153201.285000",
        "153202.085000",
        "153202.885000",
        "153203.685000",
        "153204.485000",
        "153205.285000",
        "153206.085000",
        "153206.885000",
        "153207.685000",
        "153208.485000",
        "153209.285000",
        "153210.085000",
        "153210.885000",
        "153211.685000",
        "153212.485000",
        "153213.285000",
        "153214.085000",
        "153214.885000",
        "153215.685000",
        "153216.485000",
        "153217.285000",
        "153218.085000",
        "153218.885000",
        "153219.685000",
        "153220.485000",
        "153221.285000",
        "153222.085000",
        "153222.885000",
        "153223.685000",
        "153224.485000",
        "153225.285000",
        "153226.085000",
        "153226.885000",
        "153227.685000",
        "153228.485000",
        "153229.285000",
        "153230.085000",
        "153230.885000",
        "153231.685000",
        "153232.485000",
        "153233.285000",
        "153234.085000",
        "153234.885000",
        "153235.685000",
        "153236.485000",
        "153237.285000",
        "153238.085000",
        "153238.885000",
        "153239.685000",
        "153240.485000",
        "153241.285000",
        "153242.085000",
        "153242.885000",
        "153243.685000",
        "153244.485000",
        "153245.285000",
        "153246.085000",
        "153246.885000",
        "153247.685000",
        "153248.485000",
        "153249.285000",
        "153250.085000",
        "153250.885000",
        "153251.685000",
        "153252.485000",
        "153253.285000",
        "153254.085000",
        "153254.885000",
        "153255.685000",
        "153256.485000",
        "153257.285000",
        "153258.085000",
        "153258.885000",
        "153259.685000",
        "153300.485000",
        "153301.285000",
        "153302.085000",
        "153302.885000",
        "153303.685000",
        "153304.485000",
        "153305.285000",
        "153306.085000",
        "153306.885000",
        "153307.685000",
        "153308.485000",
        "153309.285000",
        "153310.085000",
        "153310.885000",
        "153311.685000",
        "153312.485000",
        "153313.285000",
        "153314.085000",
        "153314.885000",
        "153315.685000",
        "153316.485000",
        "153317.285000",
        "153318.085000",
        "153318.885000",
        "153319.685000",
        "153320.485000",
        "153321.285000",
        "153322.085000",
        "153322.885000",
        "153323.685000",
        "153324.485000",
        "153325.285000",
        "153326.085000",
        "153326.885000",
        "153327.685000",
        "153328.485000",
        "153329.285000",
        "153330.085000",
        "153330.885000",
        "153331.685000",
        "153332.485000",
        "153333.285000",
        "153334.085000",
        "153334.885000",
        "153335.685000",
        "153336.485000",
        "153337.285000",
        "153338.085000",
        "153338.885000",
        "153339.685000",
        "153340.485000",
        "153341.285000",
        "153342.085000",
        "153342.885000",
        "153343.685000",
        "153344.485000",
        "153345.285000",
        "153346.085000",
        "153346.885000",
        "153347.685000",
        "153348.485000",
        "153349.285000",
        "153350.085000",
        "153350.885000",
        "153351.685000",
        "153352.485000",
        "153353.285000",
        "153354.085000",
        "153354.885000",
        "153355.685000",
        "153356.485000",
        "153357.285000",
        "153358.085000",
        "153358.885000",
        "153359.685000",
        "153400.485000",
        "153401.285000",
        "153402.085000",
        "153402.885000",
        "153403.685000",
        "153404.485000",
        "153405.285000",
        "153406.085000",
        "153406.885000",
        "153407.685000",
        "153408.485000",
        "153409.285000",
        "153410.085000",
        "153410.885000",
        "153411.685000",
        "153412.485000",
        "153413.285000",
        "153414.085000",
        "153414.885000",
        "153415.685000",
        "153416.485000",
        "153417.285000",
        "153418.085000",
        "153418.885000",
        "153419.685000",
        "153420.485000",
        "153421.285000",
        "153422.085000",
        "153422.885000",
        "153423.685000",
        "153424.485000",
        "153425.285000",
        "153426.085000",
        "153426.885000",
        "153427.685000",
        "153428.485000",
        "153429.285000",
        "153430.085000",
        "153430.885000",
        "153431.685000",
        "153432.485000",
        "153433.285000",
        "153434.085000",
        "153434.885000",
        "153435.685000",
        "153436.485000",
        "153437.285000",
        "153438.085000",
        "153438.885000",
        "153439.685000",
        "153440.485000",
        "153441.285000",
        "153442.085000",
        "153442.885000",
        "153443.685000",
        "153444.485000",
        "153445.285000",
        "153446.085000",
        "153446.885000",
        "153447.685000",
        "153448.485000",
        "153449.285000",
        "153450.085000",
        "153450.885000",
        "153451.685000",
        "153452.485000",
        "153453.285000",
        "153454.085000",
        "153454.885000",
        "153455.685000",
        "153456.485000",
        "153457.285000",
        "153458.085000",
        "153458.885000",
        "153459.685000",
        "153500.485000",
        "153501.285000",
        "153502.085000",
        "153502.885000",
        "153503.685000",
        "153504.485000",
        "153505.285000",
        "153506.085000",
        "153506.885000",
        "153507.685000",
        "153508.485000",
        "153509.285000",
        "153510.085000",
        "153510.885000",
        "153511.685000",
        "153512.485000",
        "153513.285000",
        "153514.085000",
        "153514.885000",
        "153515.685000",
        "153516.485000",
        "153517.285000",
        "153518.085000",
        "153518.885000",
        "153519.685000",
        "153520.485000",
        "153521.285000",
        "153522.085000",
        "153522.885000",
        "153523.685000",
        "153524.485000",
        "153525.285000",
        "153526.085000",
        "153526.885000",
        "153527.685000",
        "153528.485000",
        "153529.285000",
        "153530.085000",
        "153530.885000",
        "153531.685000",
        "153532.485000",
        "153533.285000",
        "153534.085000",
        "153534.885000",
        "153535.685000",
        "153536.485000",
        "153537.285000",
        "153538.085000",
        "153538.885000",
        "153539.685000",
        "153540.485000",
        "153541.285000",
        "153542.085000",
        "153542.885000",
        "153543.685000",
        "153544.485000",
        "153545.285000",
        "153546.085000",
        "153546.885000",
        "153547.685000",
        "153548.485000",
        "153549.285000",
        "153550.085000",
        "153550.885000",
        "153551.685000",
        "153552.485000",
        "153553.285000",
        "153554.085000",
        "153554.885000",
        "153555.685000",
        "153556.485000",
        "153557.285000",
        "153558.085000",
        "153558.885000",
        "153559.685000",
        "153600.485000",
        "153601.285000",
        "153602.085000",
        "153602.885000",
        "153603.685000",
        "153604.485000",
        "153605.285000",
        "153606.085000",
        "153606.885000",
        "153607.685000",
        "153608.485000",
        "153609.285000",
        "153610.085000",
        "153610.885000",
        "153611.685000",
        "153612.485000",
        "153613.285000",
        "153614.085000",
        "153614.885000",
        "153615.685000",
        "153616.485000",
        "153617.285000",
        "153618.085000",
        "153618.885000",
        "153619.685000",
        "153620.485000",
        "153621.285000",
        "153622.085000",
        "153622.885000",
        "153623.685000",
        "153624.485000",
        "153625.285000",
        "153626.085000",
        "153626.885000",
        "153627.685000",
        "153628.485000",
        "153629.285000",
        "153630.085000",
        "153630.885000",
        "153631.685000",
        "153632.485000",
        "153633.285000",
        "153634.085000",
        "153634.885000",
        "153635.685000",
        "153636.485000",
        "153637.285000",
        "153638.085000",
        "153638.885000",
        "153639.685000",
        "153640.485000",
        "153641.285000",
        "153642.085000",
        "153642.885000",
        "153643.685000",
        "153644.485000",
        "153645.285000",
        "153646.085000",
        "153646.885000",
        "153647.685000",
        "153648.485000",
        "153649.285000",
        "153650.085000",
        "153650.885000",
        "153651.685000",
        "153652.485000",
        "153653.285000",
        "153654.085000",
        "153654.885000",
        "153655.685000",
        "153656.485000",
        "153657.285000",
        "153658.085000",
        "153658.885000",
        "153659.685000",
        "153700.485000",
        "153701.285000",
        "153702.085000",
        "153702.885000",
        "153703.685000",
        "153704.485000",
        "153705.285000",
        "153706.085000",
        "153706.885000",
        "153707.685000",
        "153708.485000",
        "153709.285000",
        "153710.085000",
        "153710.885000",
        "153711.685000",
        "153712.485000",
        "153713.285000",
        "153714.085000",
        "153714.885000",
        "153715.685000",
        "153716.485000",
        "153717.285000",
        "153718.085000",
        "153718.885000",
        "153719.685000",
        "153720.485000",
        "153721.285000",
        "153722.085000",
        "153722.885000",
        "153723.685000",
        "153724.485000",
        "153725.285000",
        "153726.085000",
        "153726.885000",
        "153727.685000",
        "153728.485000",
        "153729.285000",
        "153730.085000",
        "153730.885000",
        "153731.685000",
        "153732.485000",
        "153733.285000",
        "153734.085000",
        "153734.885000",
        "153735.685000",
        "153736.485000",
        "153737.285000",
        "153738.085000",
        "153738.885000",
        "153739.685000",
        "153740.485000",
        "153741.285000",
        "153742.085000",
        "153742.885000",
        "153743.685000",
        "153744.485000",
        "153745.285000",
        "153746.085000",
        "153746.885000",
        "153747.685000",
        "153748.485000",
        "153749.285000",
        "153750.085000",
        "153750.885000",
        "153751.685000",
        "153752.485000",
        "153753.285000",
        "153754.085000",
        "153754.885000",
        "153755.685000",
        "153756.485000",
        "153757.285000",
        "153758.085000",
        "153758.885000",
        "153759.685000",
        "153800.485000",
        "153801.285000",
        "153802.085000",
        "153802.885000",
        "153803.685000",
        "153804.485000",
        "153805.285000",
        "153806.085000",
        "153806.885000",
        "153807.685000",
        "153808.485000",
        "153809.285000",
        "153810.085000",
        "153810.885000",
        "153811.685000",
        "153812.485000",
        "153813.285000",
        "153814.085000",
        "153814.885000",
        "153815.685000",
        "153816.485000",
        "153817.285000",
        "153818.085000",
        "153818.885000",
        "153819.685000",
        "153820.485000",
        "153821.285000",
        "153822.085000",
        "153822.885000",
        "153823.685000",
        "153824.485000",
        "153825.285000",
        "153826.085000",
        "153826.885000",
        "153827.685000",
        "153828.485000",
        "153829.285000",
        "153830.085000",
        "153830.885000",
        "153831.685000",
        "153832.485000",
        "153833.285000",
        "153834.085000",
        "153834.885000",
        "153835.685000",
        "153836.485000",
        "153837.285000",
        "153838.085000",
        "153838.885000",
        "153839.685000",
        "153840.485000",
        "153841.285000",
        "153842.085000",
        "153842.885000",
        "153843.685000",
        "153844.485000",
        "153845.285000",
        "153846.085000",
        "153846.885000",
        "153847.685000",
        "153848.485000",
        "153849.285000",
        "153850.085000",
        "153850.885000",
        "153851.685000",
        "153852.485000",
        "153853.285000",
        "153854.085000",
        "153854.885000",
        "153855.685000",
        "153856.485000",
        "153857.285000",
        "153858.085000",
        "153858.885000",
        "153859.685000",
        "153900.485000",
        "153901.285000",
        "153902.085000",
        "153902.885000",
        "153903.685000",
        "153904.485000",
        "153905.285000",
        "153906.085000",
        "153906.885000",
        "153907.685000",
        "153908.485000",
        "153909.285000",
        "153910.085000",
        "153910.885000",
        "153911.685000",
        "153912.485000",
        "153913.285000",
        "153914.085000",
        "153914.885000"
      ],
      "ContentTime": [
        "153205.009000",
        "153205.013000",
        "153205.016000",
        "153205.020000",
        "153205.023000",
        "153205.026000",
        "153205.030000",
        "153205.032000",
        "153205.035000",
        "153205.038000",
        "153205.045000",
        "153205.048000",
        "153205.051000",
        "153205.053000",
        "153205.064000",
        "153205.066000",
        "153205.069000",
        "153205.072000",
        "153205.075000",
        "153205.078000",
        "153205.081000",
        "153205.084000",
        "153205.087000",
        "153205.089000",
        "153205.092000",
        "153205.095000",
        "153205.098000",
        "153205.101000",
        "153205.104000",
        "153205.106000",
        "153205.119000",
        "153205.121000",
        "153205.124000",
        "153205.127000",
        "153205.130000",
        "153205.133000",
        "153205.136000",
        "153205.138000",
        "153205.141000",
        "153205.144000",
        "153205.147000",
        "153205.150000",
        "153205.153000",
        "153205.156000",
        "153205.159000",
        "153205.162000",
        "153205.165000",
        "153205.167000",
        "153205.170000",
        "153224.979000",
        "153224.982000",
        "153224.985000",
        "153224.988000",
        "153224.991000",
        "153224.994000",
        "153224.997000",
        "153225.001000",
        "153225.004000",
        "153225.007000",
        "153225.010000",
        "153225.013000",
        "153225.016000",
        "153225.020000",
        "153225.023000",
        "153225.026000",
        "153225.029000",
        "153225.032000",
        "153225.035000",
        "153225.038000",
        "153225.041000",
        "153225.044000",
        "153225.046000",
        "153225.049000",
        "153225.052000",
        "153225.055000",
        "153225.058000",
        "153225.061000",
        "153225.064000",
        "153225.066000",
        "153225.069000",
        "153225.072000",
        "153225.075000",
        "153225.078000",
        "153225.080000",
        "153225.083000",
        "153244.979000",
        "153244.982000",
        "153244.985000",
        "153244.988000",
        "153244.991000",
        "153244.994000",
        "153244.997000",
        "153245.001000",
        "153245.004000",
        "153245.007000",
        "153245.010000",
        "153245.013000",
        "153245.017000",
        "153245.020000",
        "153245.023000",
        "153245.026000",
        "153245.028000",
        "153245.031000",
        "153245.036000",
        "153245.039000",
        "153245.042000",
        "153245.044000",
        "153245.052000",
        "153245.055000",
        "153245.058000",
        "153304.979000",
        "153304.993000",
        "153304.996000",
        "153305.003000",
        "153305.006000",
        "153305.009000",
        "153305.013000",
        "153305.016000",
        "153305.019000",
        "153305.022000",
        "153305.025000",
        "153305.028000",
