{
  "AcquisitionMatrixPE": 140,
  "AcquisitionNumber": 1,
  "AcquisitionTime": "08:25:47.080000",
  "BandwidthPerPixelPhaseEncode": 10.352,
  "BaseResolution": 140,
  "BodyPartExamined": "BRAIN",
  "CoilCombinationMethod": "Sum of Squares",
  "ConsistencyInfo": "N4_VE11C_LATEST_20160120",
  "ConversionSoftware": "dcm2niix",
  "ConversionSoftwareVersion": "v1.0.20220720",
  "DerivedVendorReportedEchoSpacing": 0.000689998,
  "DeviceSerialNumber": "67026",
  "DiffusionScheme": "Monopolar",
  "DwellTime": 2.1e-06,
  "EchoTime": 0.0892,
  "EchoTrainLength": 105,
  "EffectiveEchoSpacing": 0.000689998,
  "FlipAngle": 78,
  "HeudiconvVersion": "0.11.4",
  "ImageComments": "Unaliased MB4/PE3/LB SENSE1",
  "ImageOrientationPatientDICOM": [
    0.997605,
    0.0218019,
    0.0656371,
    0.0174133,
    0.839272,
    -0.543433
  ],
  "ImageOrientationText": "Tra>Cor(-33.0)>Sag(3.8)",
  "ImageType": [
    "ORIGINAL",
    "PRIMARY",
    "DIFFUSION",
    "NONE",
    "MB",
    "ND",
    "MOSAIC"
  ],
  "ImagingFrequency": 123.203,
  "InPlanePhaseEncodingDirectionDICOM": "COL",
  "InstitutionAddress": "13th St. 149,Charlestown,MA,US,02129",
  "InstitutionName": "MGH PrismaFit-Bay4",
  "InstitutionalDepartmentName": "Martinos Center",
  "MRAcquisitionType": "2D",
  "MagneticFieldStrength": 3,
  "Manufacturer": "Siemens",
  "ManufacturersModelName": "Prisma_fit",
  "MatrixCoilMode": "SENSE",
  "Modality": "MR",
  "MultibandAccelerationFactor": 4,
  "NonlinearGradientCorrection": false,
  "PartialFourier": 0.75,
  "PatientPosition": "HFS",
  "PercentPhaseFOV": 100,
  "PercentSampling": 100,
  "PhaseEncodingDirection": "j-",
  "PhaseEncodingSteps": 105,
  "PhaseResolution": 1,
  "PixelBandwidth": 1700,
  "ProcedureStepDescription": "INVESTIGATORS^Greve",
  "ProtocolName": "dMRI_dir98_AP_Blue_Umbrella",
  "PulseSequenceDetails": "%CustomerSeq%\\hcp_mbep2d_diff",
  "ReceiveCoilActiveElements": "HEA;HEP",
  "ReceiveCoilName": "Head_32",
  "ReconMatrixPE": 140,
  "RepetitionTime": 3.23,
  "SAR": 0.16164,
  "ScanOptions": "PFP\\EXT",
  "ScanningSequence": "EP",
  "SequenceName": "ep_b5#1",
  "SequenceVariant": "SK\\SS",
  "SeriesDescription": "dMRI_dir98_AP_Blue_Umbrella",
  "SeriesNumber": 43,
  "ShimSetting": [
    -1189,
    -10469,
    -10163,
    497,
    136,
    215,
    -79,
    -49
  ],
  "SliceThickness": 1.5,
  "SliceTiming": [
    0,
    1.675,
    0.14,
    1.8125,
    0.2775,
    1.9525,
    0.4175,
    2.0925,
    0.5575,
    2.2325,
    0.6975,
    2.3725,
    0.8375,
    2.5125,
    0.975,
    2.65,
    1.115,
    2.79,
    1.255,
    2.93,
    1.395,
    3.07,
    1.535,
    0,
    1.675,
    0.14,
    1.8125,
    0.2775,
    1.9525,
    0.4175,
    2.0925,
    0.5575,
    2.2325,
    0.6975,
    2.3725,
    0.8375,
    2.5125,
    0.975,
    2.65,
    1.115,
    2.79,
    1.255,
    2.93,
    1.395,
    3.07,
    1.535,
    0,
    1.675,
    0.14,
    1.8125,
    0.2775,
    1.9525,
    0.4175,
    2.0925,
    0.5575,
    2.2325,
    0.6975,
    2.3725,
    0.8375,
    2.5125,
    0.975,
    2.65,
    1.115,
    2.79,
    1.255,
    2.93,
    1.395,
    3.07,
    1.535,
    0,
    1.675,
    0.14,
    1.8125,
    0.2775,
    1.9525,
    0.4175,
    2.0925,
    0.5575,
    2.2325,
    0.6975,
    2.3725,
    0.8375,
    2.5125,
    0.975,
    2.65,
    1.115,
    2.79,
    1.255,
    2.93,
    1.395,
    3.07,
    1.535
  ],
  "SoftwareVersions": "syngo MR E11",
  "SpacingBetweenSlices": 1.5,
  "StationName": "BAY4OC",
  "TotalReadoutTime": 0.0959097,
  "TxRefAmp": 250.707,
  "WipMemBlock": "988d9998-72f3-443e-882e-0673c884aadb||Sequence: ve11c/master r/5b0256d+; Dec  9 2016 09:48:43 by eja",
  "dcmmeta_affine": [
    [
      -1.4964079856872559,
      0.02611994370818138,
      0.10040291398763657,
      102.78301239013672
    ],
    [
      -0.03270287811756134,
      1.2589082717895508,
      -0.8149113059043884,
      -33.33760070800781
    ],
    [
      0.09845566004514694,
      0.8151488304138184,
      1.2553242444992065,
      -113.72692108154297
    ],
    [
      0,
      0,
      0,
      1
    ]
  ],
  "dcmmeta_reorient_transform": [
    [
      0,
      -1,
      0,
      139
    ],
    [
      1,
      0,
      0,
      0
    ],
    [
      0,
      0,
      1,
      0
    ],
    [
      0,
      0,
      0,
      1
    ]
  ],
  "dcmmeta_shape": [
    140,
    140,
    92,
    99
  ],
  "dcmmeta_slice_dim": 2,
  "dcmmeta_version": 0.6,
  "time": {
    "samples": {
      "AcquisitionNumber": [
        1,
        2,
        3,
        4,
        5,
        6,
        7,
        8,
        9,
        10,
        11,
        12,
        13,
        14,
        15,
        16,
        17,
        18,
        19,
        20,
        21,
        22,
        23,
        24,
        25,
        26,
        27,
        28,
        29,
        30,
        31,
        32,
        33,
        34,
        35,
        36,
        37,
        38,
        39,
        40,
        41,
        42,
        43,
        44,
        45,
        46,
        47,
        48,
        49,
        50,
        51,
        52,
        53,
        54,
        55,
        56,
        57,
        58,
        59,
        60,
        61,
        62,
        63,
        64,
        65,
        66,
        67,
        68,
        69,
        70,
        71,
        72,
        73,
        74,
        75,
        76,
        77,
        78,
        79,
        80,
        81,
        82,
        83,
        84,
        85,
        86,
        87,
        88,
        89,
        90,
        91,
        92,
        93,
        94,
        95,
        96,
        97,
        98,
        99
      ],
      "AcquisitionTime": [
        "082547.080000",
        "082550.310000",
        "082553.540000",
        "082556.770000",
        "082600.000000",
        "082603.230000",
        "082606.460000",
        "082609.690000",
        "082612.920000",
        "082616.150000",
        "082619.380000",
        "082622.610000",
        "082625.840000",
        "082629.070000",
        "082632.300000",
        "082635.530000",
        "082638.760000",
        "082641.990000",
        "082645.220000",
        "082648.450000",
        "082651.680000",
        "082654.910000",
        "082658.140000",
        "082701.370000",
        "082704.600000",
        "082707.830000",
        "082711.060000",
        "082714.290000",
        "082717.520000",
        "082720.750000",
        "082723.980000",
        "082727.210000",
        "082730.440000",
        "082733.670000",
        "082736.900000",
        "082740.130000",
        "082743.360000",
        "082746.590000",
        "082749.820000",
        "082753.050000",
        "082756.280000",
        "082759.510000",
        "082802.740000",
        "082805.970000",
        "082809.200000",
        "082812.430000",
        "082815.660000",
        "082818.890000",
        "082822.120000",
        "082825.350000",
        "082828.580000",
        "082831.810000",
        "082835.040000",
        "082838.270000",
        "082841.500000",
        "082844.730000",
        "082847.960000",
        "082851.190000",
        "082854.420000",
        "082857.650000",
        "082900.880000",
        "082904.110000",
        "082907.340000",
        "082910.570000",
        "082913.800000",
        "082917.030000",
        "082920.260000",
        "082923.490000",
        "082926.720000",
        "082929.950000",
        "082933.180000",
        "082936.410000",
        "082939.640000",
        "082942.870000",
        "082946.100000",
        "082949.330000",
        "082952.560000",
        "082955.790000",
        "082959.020000",
        "083002.250000",
        "083005.480000",
        "083008.710000",
        "083011.940000",
        "083015.170000",
        "083018.400000",
        "083021.630000",
        "083024.860000",
        "083028.090000",
        "083031.320000",
        "083034.550000",
        "083037.780000",
        "083041.010000",
        "083044.240000",
        "083047.470000",
        "083050.700000",
        "083053.930000",
        "083057.160000",
        "083100.390000",
        "083103.620000"
      ],
      "ContentTime": [
        "082704.252000",
        "082704.256000",
        "082704.260000",
        "082704.270000",
        "082704.273000",
        "082704.276000",
        "082704.280000",
        "082704.283000",
        "082704.287000",
        "082704.290000",
        "082704.294000",
        "082704.297000",
        "082704.301000",
        "082704.304000",
        "082704.308000",
        "082704.311000",
        "082704.315000",
        "082704.318000",
        "082704.322000",
        "082704.325000",
        "082704.336000",
        "082704.339000",
        "082704.343000",
        "082824.204000",
        "082824.208000",
        "082824.212000",
        "082824.215000",
        "082824.219000",
        "082824.222000",
        "082824.226000",
        "082824.229000",
        "082824.233000",
        "082824.236000",
        "082824.243000",
        "082824.246000",
        "082824.250000",
        "082824.253000",
        "082824.257000",
        "082824.260000",
        "082824.264000",
        "082824.267000",
        "082824.271000",
        "082824.274000",
        "082824.277000",
        "082824.281000",
        "082824.284000",
        "082824.288000",
        "082824.291000",
        "082944.206000",
        "082944.220000",
        "082944.223000",
        "082944.227000",
        "082944.230000",
        "082944.234000",
        "082944.237000",
        "082944.241000",
        "082944.249000",
        "082944.253000",
        "082944.256000",
        "082944.260000",
        "082944.263000",
        "082944.268000",
        "082944.271000",
        "082944.275000",
        "082944.279000",
        "082944.282000",
        "082944.286000",
        "082944.289000",
        "082944.293000",
        "082944.296000",
        "082944.300000",
        "082944.303000",
        "082944.306000",
        "083104.206000",
        "083104.210000",
        "083104.214000",
        "083104.217000",
        "083104.227000",
        "083104.230000",
        "083104.234000",
        "083104.237000",
        "083104.241000",
        "083104.244000",
        "083104.248000",
        "083104.251000",
        "083104.255000",
        "083104.258000",
        "083104.262000",
        "083104.265000",
        "083104.269000",
        "083104.272000",
        "083104.276000",
        "083104.279000",
        "083104.283000",
        "083104.286000",
        "083104.289000",
        "083104.293000",
        "083108.031000",
        "083108.035000"
      ],
      "InstanceCreationTime": [
        "082704.252000",
        "082704.256000",
        "082704.260000",
        "082704.270000",
        "082704.273000",
        "082704.276000",
        "082704.280000",
        "082704.283000",
        "082704.287000",
        "082704.290000",
        "082704.294000",
        "082704.297000",
        "082704.301000",
        "082704.304000",
        "082704.308000",
        "082704.311000",
        "082704.315000",
        "082704.318000",
        "082704.322000",
        "082704.325000",
        "082704.336000",
        "082704.339000",
        "082704.343000",
        "082824.204000",
        "082824.208000",
        "082824.212000",
        "082824.215000",
        "082824.219000",
        "082824.222000",
        "082824.226000",
        "082824.229000",
        "082824.233000",
        "082824.236000",
        "082824.243000",
        "082824.246000",
        "082824.250000",
        "082824.253000",
        "082824.257000",
        "082824.260000",
        "082824.264000",
        "082824.267000",
        "082824.271000",
        "082824.274000",
        "082824.277000",
        "082824.281000",
        "082824.284000",
        "082824.288000",
        "082824.291000",
        "082944.206000",
        "082944.220000",
        "082944.223000",
        "082944.227000",
        "082944.230000",
        "082944.234000",
        "082944.237000",
        "082944.241000",
        "082944.249000",
        "082944.253000",
        "082944.256000",
        "082944.260000",
        "082944.263000",
        "082944.268000",
        "082944.271000",
        "082944.275000",
        "082944.279000",
        "082944.282000",
        "082944.286000",
        "082944.289000",
        "082944.293000",
        "082944.296000",
        "082944.300000",
        "082944.303000",
        "082944.306000",
        "083104.206000",
        "083104.210000",
        "083104.214000",
        "083104.217000",
        "083104.227000",
        "083104.230000",
        "083104.234000",
        "083104.237000",
        "083104.241000",
        "083104.244000",
        "083104.248000",
        "083104.251000",
        "083104.255000",
        "083104.258000",
        "083104.262000",
        "083104.265000",
        "083104.269000",
        "083104.272000",
        "083104.276000",
        "083104.279000",
        "083104.283000",
        "083104.286000",
        "083104.289000",
        "083104.293000",
        "083108.031000",
        "083108.035000"
      ],
      "InstanceNumber": [
        1,
        2,
        3,
        4,
        5,
        6,
        7,
        8,
        9,
        10,
        11,
        12,
        13,
        14,
        15,
        16,
        17,
        18,
        19,
        20,
        21,
        22,
        23,
        24,
        25,
        26,
        27,
        28,
        29,
        30,
        31,
        32,
        33,
        34,
        35,
        36,
        37,
        38,
        39,
        40,
        41,
        42,
        43,
        44,
        45,
        46,
        47,
        48,
        49,
        50,
        51,
        52,
        53,
        54,
        55,
        56,
        57,
        58,
        59,
        60,
        61,
        62,
        63,
        64,
        65,
        66,
        67,
        68,
        69,
        70,
        71,
        72,
        73,
        74,
        75,
        76,
        77,
        78,
        79,
        80,
        81,
        82,
        83,
        84,
        85,
        86,
        87,
        88,
        89,
        90,
        91,
        92,
        93,
        94,
        95,
        96,
        97,
        98,
        99
      ],
      "LargestImagePixelValue": [
        24735,
        22024,
        5216,
        2755,
        6305,
        2440,
        5573,
        2520,
        5900,
        2655,
        5484,
        2526,
        6021,
        2563,
        5093,
        3159,
        5659,
        23716,
        2389,
        6263,
        2073,
        5741,
        2766,
        5771,
        2471,
        4958,
        2921,
        4822,
        2852,
        5649,
        2880,
        6195,
        2401,
        22824,
        5492,
        2898,
        5409,
        2325,
        5235,
        2699,
        5358,
        2272,
        5609,
        2508,
        5224,
        2296,
        4965,
        2770,
        5494,
        23857,
        2912,
        5570,
        2781,
        5073,
        2584,
        5115,
        2593,
        5542,
        2784,
        5866,
        3306,
        5429,
        2739,
        5108,
        2846,
        48669,
        5347,
        2778,
        5413,
        2384,
        5178,
        2728,
        5035,
        2281,
        5296,
        2540,
        5520,
        2505,
        6248,
        2890,
        5087,
        23981,
        2511,
        5892,
        2717,
        5758,
        2537,
        5459,
        2225,
        5030,
        2490,
        5023,
        2665,
        6103,
        2484,
        5663,
        3124,
        5057,
        2400
      ],
      "SequenceName": [
        "ep_b5#1",
        "ep_b5#1",
        "ep_b1490#2",
        "ep_b2985#3",
        "ep_b1495#4",
        "ep_b3005#5",
        "ep_b1505#6",
        "ep_b2985#7",
        "ep_b1500#8",
        "ep_b3005#9",
        "ep_b1490#10",
        "ep_b2995#11",
        "ep_b1495#12",
        "ep_b2990#13",
        "ep_b1500#14",
        "ep_b2985#15",
        "ep_b1505#16",
        "ep_b5#17",
        "ep_b3005#18",
        "ep_b1495#19",
        "ep_b3000#20",
        "ep_b1495#21",
        "ep_b3000#22",
        "ep_b1495#23",
        "ep_b3000#24",
        "ep_b1490#25",
        "ep_b2980#26",
        "ep_b1505#27",
        "ep_b2990#28",
        "ep_b1495#29",
        "ep_b3000#30",
        "ep_b1490#31",
        "ep_b3000#32",
        "ep_b5#33",
        "ep_b1505#34",
        "ep_b3000#35",
        "ep_b1490#36",
        "ep_b2980#37",
        "ep_b1495#38",
        "ep_b3000#39",
        "ep_b1500#40",
        "ep_b2995#41",
        "ep_b1505#42",
        "ep_b2990#43",
        "ep_b1495#44",
        "ep_b3000#45",
        "ep_b1495#46",
        "ep_b3000#47",
        "ep_b1490#48",
        "ep_b5#49",
        "ep_b3005#50",
        "ep_b1495#51",
        "ep_b2995#52",
        "ep_b1505#53",
        "ep_b2995#54",
        "ep_b1490#55",
        "ep_b2990#56",
        "ep_b1490#57",
        "ep_b3000#58",
        "ep_b1500#59",
        "ep_b3000#60",
        "ep_b1505#61",
        "ep_b2985#62",
        "ep_b1500#63",
        "ep_b2990#64",
        "ep_b5#65",
        "ep_b1505#66",
        "ep_b3005#67",
        "ep_b1495#68",
        "ep_b3005#69",
        "ep_b1505#70",
        "ep_b3005#71",
        "ep_b1500#72",
        "ep_b3005#73",
        "ep_b1490#74",
        "ep_b2990#75",
        "ep_b1495#76",
        "ep_b2995#77",
        "ep_b1500#78",
        "ep_b3000#79",
        "ep_b1490#80",
        "ep_b5#81",
        "ep_b2990#82",
        "ep_b1500#83",
        "ep_b2980#84",
        "ep_b1495#85",
        "ep_b2995#86",
        "ep_b1495#87",
        "ep_b2990#88",
        "ep_b1490#89",
        "ep_b2980#90",
        "ep_b1500#91",
        "ep_b2995#92",
        "ep_b1495#93",
        "ep_b3005#94",
        "ep_b1500#95",
        "ep_b2990#96",
        "ep_b1500#97",
        "ep_b3000#98"
      ],
      "TriggerTime": [
        18777.5,
        22007.5,
        25237.5,
        28467.5,
        31697.5,
        34927.5,
        38157.5,
        41387.5,
        44617.5,
        47847.5,
        51077.5,
        54307.5,
        57537.5,
        60767.5,
        63997.5,
        67227.5,
        70457.5,
        73687.5,
        76917.5,
        80147.5,
        83377.5,
        86607.5,
        89837.5,
        93067.5,
        96297.5,
        99527.5,
        102757.5,
        105987.5,
        109217.5,
        112447.5,
        115677.5,
        118907.5,
        122137.5,
        125367.5,
        128597.5,
        131827.5,
        135057.5,
        138287.5,
        141517.5,
        144747.5,
        147977.5,
        151207.5,
        154437.5,
        157667.5,
        160897.5,
        164127.5,
        167357.5,
        170587.5,
        173817.5,
        177047.5,
        180277.5,
        183507.5,
        186737.5,
        189967.5,
        193197.5,
        196427.5,
        199657.5,
        202887.5,
        206117.5,
        209347.5,
        212577.5,
        215807.5,
        219037.5,
        222267.5,
        225497.5,
        228727.5,
        231957.5,
        235187.5,
        238417.5,
        241647.5,
        244877.5,
        248107.5,
        251337.5,
        254567.5,
        257797.5,
        261027.5,
        264257.5,
        267487.5,
        270717.5,
        273947.5,
        277177.5,
        280407.5,
        283637.5,
        286867.5,
        290097.5,
        293327.5,
        296557.5,
        299787.5,
        303017.5,
        306247.5,
        309477.5,
        312707.5,
        315937.5,
        319167.5,
        322397.5,
        325627.5,
        328857.5,
        332087.5,
        335317.5
      ],
      "WindowCenter": [
        3604,
        3567,
        1376,
        816,
        1398,
        817,
        1368,
        811,
        1387,
        792,
        1373,
        807,
        1396,
        830,
        1357,
        853,
        1372,
        3569,
        798,
        1398,
        739,
        1380,
        823,
        1388,
        808,
        1346,
        819,
        1337,
        842,
        1383,
        822,
        1401,
        802,
        3565,
        1371,
        819,
        1374,
        779,
        1355,
        810,
        1369,
        779,
        1370,
        808,
        1378,
        763,
        1353,
        844,
        1374,
        3602,
        832,
        1369,
        823,
        1360,
        818,
        1357,
        808,
        1374,
        802,
        1390,
        830,
        1360,
        818,
        1370,
        822,
        4271,
        1370,
        836,
        1375,
        763,
        1353,
        834,
        1355,
        779,
        1357,
        813,
        1377,
        807,
        1382,
        803,
        1342,
        3567,
        805,
        1369,
        788,
        1370,
        817,
        1371,
        777,
        1359,
        807,
        1356,
        807,
        1383,
        828,
        1355,
        854,
        1361,
        802
      ],
      "WindowWidth": [
        8446,
        8420,
        3576,
        2224,
        3619,
        2226,
        3558,
        2222,
        3598,
        2172,
        3571,
        2210,
        3609,
        2273,
        3539,
        2321,
        3568,
        8392,
        2189,
        3618,
        2040,
        3573,
        2250,
        3598,
        2210,
        3518,
        2233,
        3476,
        2300,
        3584,
        2245,
        3626,
        2189,
        8415,
        3557,
        2234,
        3570,
        2138,
        3528,
        2218,
        3549,
        2140,
        3562,
        2210,
        3586,
        2099,
        3518,
        2306,
        3571,
        8473,
        2263,
        3555,
        2249,
        3542,
        2246,
        3531,
        2211,
        3569,
        2193,
        3608,
        2259,
        3549,
        2231,
        3561,
        2246,
        9457,
        3556,
        2278,
        3572,
        2099,
        3516,
        2270,
        3529,
        2139,
        3533,
        2228,
        3580,
        2210,
        3577,
        2196,
        3504,
        8390,
        2198,
        3552,
        2157,
        3558,
        2241,
        3560,
        2134,
        3539,
        2206,
        3529,
        2208,
        3586,
        2264,
        3529,
        2326,
        3547,
        2188
      ]
    },
    "slices": {}
  }
}
