{
  "AcquisitionMatrixPE": 104,
  "AcquisitionNumber": 1,
  "AcquisitionTime": "15:38:51.285000",
  "BandwidthPerPixelPhaseEncode": 16.578,
  "BaseResolution": 104,
  "BodyPartExamined": "BRAIN",
  "CoilCombinationMethod": "Sum of Squares",
  "ConsistencyInfo": "N4_VE11C_LATEST_20160120",
  "ConversionSoftware": "dcm2niix",
  "ConversionSoftwareVersion": "v1.0.20220720",
  "DerivedVendorReportedEchoSpacing": 0.000580009,
  "DeviceSerialNumber": "67026",
  "DwellTime": 2.1e-06,
  "EchoTime": 0.037,
  "EchoTrainLength": 104,
  "EffectiveEchoSpacing": 0.000580009,
  "FlipAngle": 52,
  "HeudiconvVersion": "0.11.4",
  "ImageComments": "Unaliased MB8/PE3/LB",
  "ImageOrientationPatientDICOM": [
    0.994066,
    0.0431454,
    -0.0998515,
    -0.0806791,
    0.908154,
    -0.410788
  ],
  "ImageOrientationText": "Tra>Cor(-24.7)>Sag(-4.2)",
  "ImageType": [
    "ORIGINAL",
    "PRIMARY",
    "M",
    "MB",
    "ND",
    "MOSAIC"
  ],
  "ImagingFrequency": 123.163,
  "InPlanePhaseEncodingDirectionDICOM": "COL",
  "InstitutionAddress": "13th St. 149,Charlestown,MA,US,02129",
  "InstitutionName": "MGH PrismaFit-Bay4",
  "InstitutionalDepartmentName": "Martinos Center",
  "MRAcquisitionType": "2D",
  "MagneticFieldStrength": 3,
  "Manufacturer": "Siemens",
  "ManufacturersModelName": "Prisma_fit",
  "MatrixCoilMode": "SENSE",
  "Modality": "MR",
  "MultibandAccelerationFactor": 8,
  "NonlinearGradientCorrection": false,
  "PartialFourier": 1,
  "PatientPosition": "HFS",
  "PercentPhaseFOV": 100,
  "PercentSampling": 100,
  "PhaseEncodingDirection": "j-",
  "PhaseEncodingSteps": 104,
  "PhaseResolution": 1,
  "PixelBandwidth": 2290,
  "ProcedureStepDescription": "INVESTIGATORS^Greve",
  "ProtocolName": "rfMRI_REST_AP",
  "PulseSequenceDetails": "%CustomerSeq%\\hcp_mbep2d_bold",
  "ReceiveCoilActiveElements": "HEA;HEP",
  "ReceiveCoilName": "Head_32",
  "ReconMatrixPE": 104,
  "RepetitionTime": 0.8,
  "SAR": 0.0923128,
  "ScanOptions": "FS\\EXT",
  "ScanningSequence": "EP",
  "SequenceName": "epfid2d1_104",
  "SequenceVariant": "SK\\SS",
  "SeriesDescription": "rfMRI_REST_AP",
  "SeriesNumber": 20,
  "ShimSetting": [
    -1259,
    -10515,
    -10150,
    271,
    191,
    95,
    -37,
    13
  ],
  "SliceThickness": 2,
  "SliceTiming": [
    0,
    0.4325,
    0.085,
    0.52,
    0.1725,
    0.605,
    0.26,
    0.6925,
    0.345,
    0,
    0.4325,
    0.085,
    0.52,
    0.1725,
    0.605,
    0.26,
    0.6925,
    0.345,
    0,
    0.4325,
    0.085,
    0.52,
    0.1725,
    0.605,
    0.26,
    0.6925,
    0.345,
    0,
    0.4325,
    0.085,
    0.52,
    0.1725,
    0.605,
    0.26,
    0.6925,
    0.345,
    0,
    0.4325,
    0.085,
    0.52,
    0.1725,
    0.605,
    0.26,
    0.6925,
    0.345,
    0,
    0.4325,
    0.085,
    0.52,
    0.1725,
    0.605,
    0.26,
    0.6925,
    0.345,
    0,
    0.4325,
    0.085,
    0.52,
    0.1725,
    0.605,
    0.26,
    0.6925,
    0.345,
    0,
    0.4325,
    0.085,
    0.52,
    0.1725,
    0.605,
    0.26,
    0.6925,
    0.345
  ],
  "SoftwareVersions": "syngo MR E11",
  "SpacingBetweenSlices": 2,
  "StationName": "BAY4OC",
  "TaskName": "rest",
  "TotalReadoutTime": 0.0597409,
  "TxRefAmp": 289.44,
  "WipMemBlock": "c9fd5157-d9bd-40d3-b907-a57c1927e832||Sequence: ve11c/master r/5b0256d+; Dec  9 2016 09:38:51 by eja",
  "dcmmeta_affine": [
    [
      -1.9881329536437988,
      -0.1613582819700241,
      -0.1459139585494995,
      113.0496597290039
    ],
    [
      -0.08629070222377777,
      1.8163084983825684,
      -0.8328129053115845,
      -51.12257385253906
    ],
    [
      -0.19970302283763885,
      0.8215758800506592,
      1.8124932050704956,
      -84.87300109863281
    ],
    [
      0,
      0,
      0,
      1
    ]
  ],
  "dcmmeta_reorient_transform": [
    [
      0,
      -1,
      0,
      103
    ],
    [
      1,
      0,
      0,
      0
    ],
    [
      0,
      0,
      1,
      0
    ],
    [
      0,
      0,
      0,
      1
    ]
  ],
  "dcmmeta_shape": [
    104,
    104,
    72,
    600
  ],
  "dcmmeta_slice_dim": 2,
  "dcmmeta_version": 0.6,
  "time": {
    "samples": {
      "AcquisitionNumber": [
        1,
        2,
        3,
        4,
        5,
        6,
        7,
        8,
        9,
        10,
        11,
        12,
        13,
        14,
        15,
        16,
        17,
        18,
        19,
        20,
        21,
        22,
        23,
        24,
        25,
        26,
        27,
        28,
        29,
        30,
        31,
        32,
        33,
        34,
        35,
        36,
        37,
        38,
        39,
        40,
        41,
        42,
        43,
        44,
        45,
        46,
        47,
        48,
        49,
        50,
        51,
        52,
        53,
        54,
        55,
        56,
        57,
        58,
        59,
        60,
        61,
        62,
        63,
        64,
        65,
        66,
        67,
        68,
        69,
        70,
        71,
        72,
        73,
        74,
        75,
        76,
        77,
        78,
        79,
        80,
        81,
        82,
        83,
        84,
        85,
        86,
        87,
        88,
        89,
        90,
        91,
        92,
        93,
        94,
        95,
        96,
        97,
        98,
        99,
        100,
        101,
        102,
        103,
        104,
        105,
        106,
        107,
        108,
        109,
        110,
        111,
        112,
        113,
        114,
        115,
        116,
        117,
        118,
        119,
        120,
        121,
        122,
        123,
        124,
        125,
        126,
        127,
        128,
        129,
        130,
        131,
        132,
        133,
        134,
        135,
        136,
        137,
        138,
        139,
        140,
        141,
        142,
        143,
        144,
        145,
        146,
        147,
        148,
        149,
        150,
        151,
        152,
        153,
        154,
        155,
        156,
        157,
        158,
        159,
        160,
        161,
        162,
        163,
        164,
        165,
        166,
        167,
        168,
        169,
        170,
        171,
        172,
        173,
        174,
        175,
        176,
        177,
        178,
        179,
        180,
        181,
        182,
        183,
        184,
        185,
        186,
        187,
        188,
        189,
        190,
        191,
        192,
        193,
        194,
        195,
        196,
        197,
        198,
        199,
        200,
        201,
        202,
        203,
        204,
        205,
        206,
        207,
        208,
        209,
        210,
        211,
        212,
        213,
        214,
        215,
        216,
        217,
        218,
        219,
        220,
        221,
        222,
        223,
        224,
        225,
        226,
        227,
        228,
        229,
        230,
        231,
        232,
        233,
        234,
        235,
        236,
        237,
        238,
        239,
        240,
        241,
        242,
        243,
        244,
        245,
        246,
        247,
        248,
        249,
        250,
        251,
        252,
        253,
        254,
        255,
        256,
        257,
        258,
        259,
        260,
        261,
        262,
        263,
        264,
        265,
        266,
        267,
        268,
        269,
        270,
        271,
        272,
        273,
        274,
        275,
        276,
        277,
        278,
        279,
        280,
        281,
        282,
        283,
        284,
        285,
        286,
        287,
        288,
        289,
        290,
        291,
        292,
        293,
        294,
        295,
        296,
        297,
        298,
        299,
        300,
        301,
        302,
        303,
        304,
        305,
        306,
        307,
        308,
        309,
        310,
        311,
        312,
        313,
        314,
        315,
        316,
        317,
        318,
        319,
        320,
        321,
        322,
        323,
        324,
        325,
        326,
        327,
        328,
        329,
        330,
        331,
        332,
        333,
        334,
        335,
        336,
        337,
        338,
        339,
        340,
        341,
        342,
        343,
        344,
        345,
        346,
        347,
        348,
        349,
        350,
        351,
        352,
        353,
        354,
        355,
        356,
        357,
        358,
        359,
        360,
        361,
        362,
        363,
        364,
        365,
        366,
        367,
        368,
        369,
        370,
        371,
        372,
        373,
        374,
        375,
        376,
        377,
        378,
        379,
        380,
        381,
        382,
        383,
        384,
        385,
        386,
        387,
        388,
        389,
        390,
        391,
        392,
        393,
        394,
        395,
        396,
        397,
        398,
        399,
        400,
        401,
        402,
        403,
        404,
        405,
        406,
        407,
        408,
        409,
        410,
        411,
        412,
        413,
        414,
        415,
        416,
        417,
        418,
        419,
        420,
        421,
        422,
        423,
        424,
        425,
        426,
        427,
        428,
        429,
        430,
        431,
        432,
        433,
        434,
        435,
        436,
        437,
        438,
        439,
        440,
        441,
        442,
        443,
        444,
        445,
        446,
        447,
        448,
        449,
        450,
        451,
        452,
        453,
        454,
        455,
        456,
        457,
        458,
        459,
        460,
        461,
        462,
        463,
        464,
        465,
        466,
        467,
        468,
        469,
        470,
        471,
        472,
        473,
        474,
        475,
        476,
        477,
        478,
        479,
        480,
        481,
        482,
        483,
        484,
        485,
        486,
        487,
        488,
        489,
        490,
        491,
        492,
        493,
        494,
        495,
        496,
        497,
        498,
        499,
        500,
        501,
        502,
        503,
        504,
        505,
        506,
        507,
        508,
        509,
        510,
        511,
        512,
        513,
        514,
        515,
        516,
        517,
        518,
        519,
        520,
        521,
        522,
        523,
        524,
        525,
        526,
        527,
        528,
        529,
        530,
        531,
        532,
        533,
        534,
        535,
        536,
        537,
        538,
        539,
        540,
        541,
        542,
        543,
        544,
        545,
        546,
        547,
        548,
        549,
        550,
        551,
        552,
        553,
        554,
        555,
        556,
        557,
        558,
        559,
        560,
        561,
        562,
        563,
        564,
        565,
        566,
        567,
        568,
        569,
        570,
        571,
        572,
        573,
        574,
        575,
        576,
        577,
        578,
        579,
        580,
        581,
        582,
        583,
        584,
        585,
        586,
        587,
        588,
        589,
        590,
        591,
        592,
        593,
        594,
        595,
        596,
        597,
        598,
        599,
        600
      ],
      "AcquisitionTime": [
        "153851.285000",
        "153852.085000",
        "153852.885000",
        "153853.685000",
        "153854.485000",
        "153855.285000",
        "153856.085000",
        "153856.885000",
        "153857.685000",
        "153858.485000",
        "153859.285000",
        "153900.085000",
        "153900.885000",
        "153901.685000",
        "153902.485000",
        "153903.285000",
        "153904.085000",
        "153904.885000",
        "153905.685000",
        "153906.485000",
        "153907.285000",
        "153908.085000",
        "153908.885000",
        "153909.685000",
        "153910.485000",
        "153911.285000",
        "153912.085000",
        "153912.885000",
        "153913.685000",
        "153914.485000",
        "153915.285000",
        "153916.085000",
        "153916.885000",
        "153917.685000",
        "153918.485000",
        "153919.285000",
        "153920.085000",
        "153920.885000",
        "153921.685000",
        "153922.485000",
        "153923.285000",
        "153924.085000",
        "153924.885000",
        "153925.685000",
        "153926.485000",
        "153927.285000",
        "153928.085000",
        "153928.885000",
        "153929.685000",
        "153930.485000",
        "153931.285000",
        "153932.085000",
        "153932.885000",
        "153933.685000",
        "153934.485000",
        "153935.285000",
        "153936.085000",
        "153936.885000",
        "153937.685000",
        "153938.485000",
        "153939.285000",
        "153940.085000",
        "153940.885000",
        "153941.685000",
        "153942.485000",
        "153943.285000",
        "153944.085000",
        "153944.885000",
        "153945.685000",
        "153946.485000",
        "153947.285000",
        "153948.085000",
        "153948.885000",
        "153949.685000",
        "153950.485000",
        "153951.285000",
        "153952.085000",
        "153952.885000",
        "153953.685000",
        "153954.485000",
        "153955.285000",
        "153956.085000",
        "153956.885000",
        "153957.685000",
        "153958.485000",
        "153959.285000",
        "154000.085000",
        "154000.885000",
        "154001.685000",
        "154002.485000",
        "154003.285000",
        "154004.085000",
        "154004.885000",
        "154005.685000",
        "154006.485000",
        "154007.285000",
        "154008.085000",
        "154008.885000",
        "154009.685000",
        "154010.485000",
        "154011.285000",
        "154012.085000",
        "154012.885000",
        "154013.685000",
        "154014.485000",
        "154015.285000",
        "154016.085000",
        "154016.885000",
        "154017.685000",
        "154018.485000",
        "154019.285000",
        "154020.085000",
        "154020.885000",
        "154021.685000",
        "154022.485000",
        "154023.285000",
        "154024.085000",
        "154024.885000",
        "154025.685000",
        "154026.485000",
        "154027.285000",
        "154028.085000",
        "154028.885000",
        "154029.685000",
        "154030.485000",
        "154031.285000",
        "154032.085000",
        "154032.885000",
        "154033.685000",
        "154034.485000",
        "154035.285000",
        "154036.085000",
        "154036.885000",
        "154037.685000",
        "154038.485000",
        "154039.285000",
        "154040.085000",
        "154040.885000",
        "154041.685000",
        "154042.485000",
        "154043.285000",
        "154044.085000",
        "154044.885000",
        "154045.685000",
        "154046.485000",
        "154047.285000",
        "154048.085000",
        "154048.885000",
        "154049.685000",
        "154050.485000",
        "154051.285000",
        "154052.085000",
        "154052.885000",
        "154053.685000",
        "154054.485000",
        "154055.285000",
        "154056.085000",
        "154056.885000",
        "154057.685000",
        "154058.485000",
        "154059.285000",
        "154100.085000",
        "154100.885000",
        "154101.685000",
        "154102.485000",
        "154103.285000",
        "154104.085000",
        "154104.885000",
        "154105.685000",
        "154106.485000",
        "154107.285000",
        "154108.085000",
        "154108.885000",
        "154109.685000",
        "154110.485000",
        "154111.285000",
        "154112.085000",
        "154112.885000",
        "154113.685000",
        "154114.485000",
        "154115.285000",
        "154116.085000",
        "154116.885000",
        "154117.685000",
        "154118.485000",
        "154119.285000",
        "154120.085000",
        "154120.885000",
        "154121.685000",
        "154122.485000",
        "154123.285000",
        "154124.085000",
        "154124.885000",
        "154125.685000",
        "154126.485000",
        "154127.285000",
        "154128.085000",
        "154128.885000",
        "154129.685000",
        "154130.485000",
        "154131.285000",
        "154132.085000",
        "154132.885000",
        "154133.685000",
        "154134.485000",
        "154135.285000",
        "154136.085000",
        "154136.885000",
        "154137.685000",
        "154138.485000",
        "154139.285000",
        "154140.085000",
        "154140.885000",
        "154141.685000",
        "154142.485000",
        "154143.285000",
        "154144.085000",
        "154144.885000",
        "154145.685000",
        "154146.485000",
        "154147.285000",
        "154148.085000",
        "154148.885000",
        "154149.685000",
        "154150.485000",
        "154151.285000",
        "154152.085000",
        "154152.885000",
        "154153.685000",
        "154154.485000",
        "154155.285000",
        "154156.085000",
        "154156.885000",
        "154157.685000",
        "154158.485000",
        "154159.285000",
        "154200.085000",
        "154200.885000",
        "154201.685000",
        "154202.485000",
        "154203.285000",
        "154204.085000",
        "154204.885000",
        "154205.685000",
        "154206.485000",
        "154207.285000",
        "154208.085000",
        "154208.885000",
        "154209.685000",
        "154210.485000",
        "154211.285000",
        "154212.085000",
        "154212.885000",
        "154213.685000",
        "154214.485000",
        "154215.285000",
        "154216.085000",
        "154216.885000",
        "154217.685000",
        "154218.485000",
        "154219.285000",
        "154220.085000",
        "154220.885000",
        "154221.685000",
        "154222.485000",
        "154223.285000",
        "154224.085000",
        "154224.885000",
        "154225.685000",
        "154226.485000",
        "154227.285000",
        "154228.085000",
        "154228.885000",
        "154229.685000",
        "154230.485000",
        "154231.285000",
        "154232.085000",
        "154232.885000",
        "154233.685000",
        "154234.485000",
        "154235.285000",
        "154236.085000",
        "154236.885000",
        "154237.685000",
        "154238.485000",
        "154239.285000",
        "154240.085000",
        "154240.885000",
        "154241.685000",
        "154242.485000",
        "154243.285000",
        "154244.085000",
        "154244.885000",
        "154245.685000",
        "154246.485000",
        "154247.285000",
        "154248.085000",
        "154248.885000",
        "154249.685000",
        "154250.485000",
        "154251.285000",
        "154252.085000",
        "154252.885000",
        "154253.685000",
        "154254.485000",
        "154255.285000",
        "154256.085000",
        "154256.885000",
        "154257.685000",
        "154258.485000",
        "154259.285000",
        "154300.085000",
        "154300.885000",
        "154301.685000",
        "154302.485000",
        "154303.285000",
        "154304.085000",
        "154304.885000",
        "154305.685000",
        "154306.485000",
        "154307.285000",
        "154308.085000",
        "154308.885000",
        "154309.685000",
        "154310.485000",
        "154311.285000",
        "154312.085000",
        "154312.885000",
        "154313.685000",
        "154314.485000",
        "154315.285000",
        "154316.085000",
        "154316.885000",
        "154317.685000",
        "154318.485000",
        "154319.285000",
        "154320.085000",
        "154320.885000",
        "154321.685000",
        "154322.485000",
        "154323.285000",
        "154324.085000",
        "154324.885000",
        "154325.685000",
        "154326.485000",
        "154327.285000",
        "154328.085000",
        "154328.885000",
        "154329.685000",
        "154330.485000",
        "154331.285000",
        "154332.085000",
        "154332.885000",
        "154333.685000",
        "154334.485000",
        "154335.285000",
        "154336.085000",
        "154336.885000",
        "154337.685000",
        "154338.485000",
        "154339.285000",
        "154340.085000",
        "154340.885000",
        "154341.685000",
        "154342.485000",
        "154343.285000",
        "154344.085000",
        "154344.885000",
        "154345.685000",
        "154346.485000",
        "154347.285000",
        "154348.085000",
        "154348.885000",
        "154349.685000",
        "154350.485000",
        "154351.285000",
        "154352.085000",
        "154352.885000",
        "154353.685000",
        "154354.485000",
        "154355.285000",
        "154356.085000",
        "154356.885000",
        "154357.685000",
        "154358.485000",
        "154359.285000",
        "154400.085000",
        "154400.885000",
        "154401.685000",
        "154402.485000",
        "154403.285000",
        "154404.085000",
        "154404.885000",
        "154405.685000",
        "154406.485000",
        "154407.285000",
        "154408.085000",
        "154408.885000",
        "154409.685000",
        "154410.485000",
        "154411.285000",
        "154412.085000",
        "154412.885000",
        "154413.685000",
        "154414.485000",
        "154415.285000",
        "154416.085000",
        "154416.885000",
        "154417.685000",
        "154418.485000",
        "154419.285000",
        "154420.085000",
        "154420.885000",
        "154421.685000",
        "154422.485000",
        "154423.285000",
        "154424.085000",
        "154424.885000",
        "154425.685000",
        "154426.485000",
        "154427.285000",
        "154428.085000",
        "154428.885000",
        "154429.685000",
        "154430.485000",
        "154431.285000",
        "154432.085000",
        "154432.885000",
        "154433.685000",
        "154434.485000",
        "154435.285000",
        "154436.085000",
        "154436.885000",
        "154437.685000",
        "154438.485000",
        "154439.285000",
        "154440.085000",
        "154440.885000",
        "154441.685000",
        "154442.485000",
        "154443.285000",
        "154444.085000",
        "154444.885000",
        "154445.685000",
        "154446.485000",
        "154447.285000",
        "154448.085000",
        "154448.885000",
        "154449.685000",
        "154450.485000",
        "154451.285000",
        "154452.085000",
        "154452.885000",
        "154453.685000",
        "154454.485000",
        "154455.285000",
        "154456.085000",
        "154456.885000",
        "154457.685000",
        "154458.485000",
        "154459.285000",
        "154500.085000",
        "154500.885000",
        "154501.685000",
        "154502.485000",
        "154503.285000",
        "154504.085000",
        "154504.885000",
        "154505.685000",
        "154506.485000",
        "154507.285000",
        "154508.085000",
        "154508.885000",
        "154509.685000",
        "154510.485000",
        "154511.285000",
        "154512.085000",
        "154512.885000",
        "154513.685000",
        "154514.485000",
        "154515.285000",
        "154516.085000",
        "154516.885000",
        "154517.685000",
        "154518.485000",
        "154519.285000",
        "154520.085000",
        "154520.885000",
        "154521.685000",
        "154522.485000",
        "154523.285000",
        "154524.085000",
        "154524.885000",
        "154525.685000",
        "154526.485000",
        "154527.285000",
        "154528.085000",
        "154528.885000",
        "154529.685000",
        "154530.485000",
        "154531.285000",
        "154532.085000",
        "154532.885000",
        "154533.685000",
        "154534.485000",
        "154535.285000",
        "154536.085000",
        "154536.885000",
        "154537.685000",
        "154538.485000",
        "154539.285000",
        "154540.085000",
        "154540.885000",
        "154541.685000",
        "154542.485000",
        "154543.285000",
        "154544.085000",
        "154544.885000",
        "154545.685000",
        "154546.485000",
        "154547.285000",
        "154548.085000",
        "154548.885000",
        "154549.685000",
        "154550.485000",
        "154551.285000",
        "154552.085000",
        "154552.885000",
        "154553.685000",
        "154554.485000",
        "154555.285000",
        "154556.085000",
        "154556.885000",
        "154557.685000",
        "154558.485000",
        "154559.285000",
        "154600.085000",
        "154600.885000",
        "154601.685000",
        "154602.485000",
        "154603.285000",
        "154604.085000",
        "154604.885000",
        "154605.685000",
        "154606.485000",
        "154607.285000",
        "154608.085000",
        "154608.885000",
        "154609.685000",
        "154610.485000",
        "154611.285000",
        "154612.085000",
        "154612.885000",
        "154613.685000",
        "154614.485000",
        "154615.285000",
        "154616.085000",
        "154616.885000",
        "154617.685000",
        "154618.485000",
        "154619.285000",
        "154620.085000",
        "154620.885000",
        "154621.685000",
        "154622.485000",
        "154623.285000",
        "154624.085000",
        "154624.885000",
        "154625.685000",
        "154626.485000",
        "154627.285000",
        "154628.085000",
        "154628.885000",
        "154629.685000",
        "154630.485000",
        "154631.285000",
        "154632.085000",
        "154632.885000",
        "154633.685000",
        "154634.485000",
        "154635.285000",
        "154636.085000",
        "154636.885000",
        "154637.685000",
        "154638.485000",
        "154639.285000",
        "154640.085000",
        "154640.885000",
        "154641.685000",
        "154642.485000",
        "154643.285000",
        "154644.085000",
        "154644.885000",
        "154645.685000",
        "154646.485000",
        "154647.285000",
        "154648.085000",
        "154648.885000",
        "154649.685000",
        "154650.485000"
      ],
      "ContentTime": [
        "153939.109000",
        "153939.113000",
        "153939.116000",
        "153939.119000",
        "153939.122000",
        "153939.131000",
        "153939.134000",
        "153939.137000",
        "153939.140000",
        "153939.152000",
        "153939.155000",
        "153939.158000",
        "153939.161000",
        "153939.164000",
        "153939.167000",
        "153939.169000",
        "153939.172000",
        "153939.175000",
        "153939.178000",
        "153939.181000",
        "153939.184000",
        "153939.187000",
        "153939.190000",
        "153939.194000",
        "153939.197000",
        "153939.205000",
        "153939.208000",
        "153939.212000",
        "153939.216000",
        "153939.220000",
        "153939.223000",
        "153939.226000",
        "153939.229000",
        "153939.232000",
        "153939.235000",
        "153939.237000",
        "153939.240000",
        "153939.243000",
        "153959.077000",
        "153959.080000",
        "153959.083000",
        "153959.086000",
        "153959.089000",
        "153959.092000",
        "153959.095000",
        "153959.098000",
        "153959.100000",
        "153959.103000",
        "153959.106000",
        "153959.109000",
        "153959.112000",
        "153959.115000",
        "153959.118000",
        "153959.120000",
        "153959.123000",
        "153959.126000",
        "153959.129000",
        "153959.132000",
        "153959.135000",
        "153959.138000",
        "153959.141000",
        "153959.143000",
        "153959.146000",
        "153959.149000",
        "153959.152000",
        "153959.155000",
        "153959.158000",
        "153959.161000",
        "153959.164000",
        "153959.167000",
        "153959.170000",
        "153959.173000",
        "153959.175000",
        "153959.178000",
        "153959.181000",
        "153959.184000",
        "153959.187000",
        "153959.190000",
        "153959.203000",
        "154019.077000",
        "154019.080000",
        "154019.083000",
        "154019.086000",
        "154019.089000",
        "154019.091000",
        "154019.094000",
        "154019.097000",
        "154019.100000",
        "154019.103000",
        "154019.106000",
        "154019.109000",
        "154019.112000",
        "154019.114000",
        "154019.117000",
        "154019.120000",
        "154019.123000",
        "154019.126000",
        "154019.129000",
        "154019.132000",
        "154019.134000",
        "154019.137000",
        "154019.140000",
        "154019.143000",
        "154019.146000",
        "154039.077000",
        "154039.080000",
        "154039.083000",
        "154039.086000",
        "154039.089000",
        "154039.092000",
        "154039.095000",
        "154039.097000",
        "154039.100000",
        "154039.103000",
        "154039.106000",
        "154039.109000",
        "154039.112000",
        "154039.115000",
        "154039.117000",
        "154039.120000",
        "154039.123000",
        "154039.126000",
        "154039.129000",
