{
  "AcquisitionMatrixPE": 104,
  "AcquisitionNumber": 1,
  "AcquisitionTime": "10:31:59.805000",
  "BandwidthPerPixelPhaseEncode": 16.578,
  "BaseResolution": 104,
  "BodyPartExamined": "BRAIN",
  "CoilCombinationMethod": "Sum of Squares",
  "ConsistencyInfo": "N4_VE11C_LATEST_20160120",
  "ConversionSoftware": "dcm2niix",
  "ConversionSoftwareVersion": "v1.0.20220720",
  "DerivedVendorReportedEchoSpacing": 0.000580009,
  "DeviceSerialNumber": "67026",
  "DwellTime": 2.1e-06,
  "EchoTime": 0.037,
  "EchoTrainLength": 104,
  "EffectiveEchoSpacing": 0.000580009,
  "FlipAngle": 52,
  "HeudiconvVersion": "0.11.4",
  "ImageComments": "Unaliased MB8/PE3/LB",
  "ImageOrientationPatientDICOM": [
    0.995461,
    0.013242,
    0.0942459,
    0.0107723,
    0.968232,
    -0.249823
  ],
  "ImageOrientationText": "Tra>Cor(-14.5)>Sag(5.4)",
  "ImageType": [
    "ORIGINAL",
    "PRIMARY",
    "M",
    "MB",
    "ND",
    "MOSAIC"
  ],
  "ImagingFrequency": 123.178,
  "InPlanePhaseEncodingDirectionDICOM": "COL",
  "InstitutionAddress": "13th St. 149,Charlestown,MA,US,02129",
  "InstitutionName": "Martinos Center Bay 4 Prisma",
  "InstitutionalDepartmentName": "Martinos Center",
  "MRAcquisitionType": "2D",
  "MagneticFieldStrength": 3,
  "Manufacturer": "Siemens",
  "ManufacturersModelName": "Prisma_fit",
  "MatrixCoilMode": "SENSE",
  "Modality": "MR",
  "MultibandAccelerationFactor": 8,
  "NonlinearGradientCorrection": false,
  "PartialFourier": 1,
  "PatientPosition": "HFS",
  "PercentPhaseFOV": 100,
  "PercentSampling": 100,
  "PhaseEncodingDirection": "j-",
  "PhaseEncodingSteps": 104,
  "PhaseResolution": 1,
  "PixelBandwidth": 2290,
  "ProcedureStepDescription": "INVESTIGATORS^Greve",
  "ProtocolName": "rfMRI_REST_AP",
  "PulseSequenceDetails": "%CustomerSeq%\\hcp_mbep2d_bold",
  "ReceiveCoilActiveElements": "HEA;HEP",
  "ReceiveCoilName": "Head_32",
  "ReconMatrixPE": 104,
  "RepetitionTime": 0.8,
  "SAR": 0.0634088,
  "ScanOptions": "FS\\EXT",
  "ScanningSequence": "EP",
  "SequenceName": "epfid2d1_104",
  "SequenceVariant": "SK\\SS",
  "SeriesDescription": "rfMRI_REST_AP",
  "SeriesNumber": 47,
  "ShimSetting": [
    -1196,
    -10497,
    -10156,
    392,
    136,
    194,
    64,
    24
  ],
  "SliceThickness": 2,
  "SliceTiming": [
    0,
    0.4325,
    0.085,
    0.52,
    0.1725,
    0.605,
    0.26,
    0.6925,
    0.345,
    0,
    0.4325,
    0.085,
    0.52,
    0.1725,
    0.605,
    0.26,
    0.6925,
    0.345,
    0,
    0.4325,
    0.085,
    0.52,
    0.1725,
    0.605,
    0.26,
    0.6925,
    0.345,
    0,
    0.4325,
    0.085,
    0.52,
    0.1725,
    0.605,
    0.26,
    0.6925,
    0.345,
    0,
    0.4325,
    0.085,
    0.52,
    0.1725,
    0.605,
    0.26,
    0.6925,
    0.345,
    0,
    0.4325,
    0.085,
    0.52,
    0.1725,
    0.605,
    0.26,
    0.6925,
    0.345,
    0,
    0.4325,
    0.085,
    0.52,
    0.1725,
    0.605,
    0.26,
    0.6925,
    0.345,
    0,
    0.4325,
    0.085,
    0.52,
    0.1725,
    0.605,
    0.26,
    0.6925,
    0.345
  ],
  "SoftwareVersions": "syngo MR E11",
  "SpacingBetweenSlices": 2,
  "StationName": "BAY4OC",
  "TaskName": "rest",
  "TotalReadoutTime": 0.0597409,
  "TxRefAmp": 214.826,
  "WipMemBlock": "fe369555-a048-4f09-a778-d0755c23c512||Sequence: ve11c/master r/5b0256d+; Dec  9 2016 09:38:51 by eja",
  "dcmmeta_affine": [
    [
      -1.9909217357635498,
      0.0215446874499321,
      0.18911996483802795,
      106.46332550048828
    ],
    [
      -0.02648402750492096,
      1.9364632368087769,
      -0.4994085133075714,
      -64.63138580322266
    ],
    [
      0.18849171698093414,
      0.49964597821235657,
      1.927388072013855,
      -80.83426666259766
    ],
    [
      0,
      0,
      0,
      1
    ]
  ],
  "dcmmeta_reorient_transform": [
    [
      0,
      -1,
      0,
      103
    ],
    [
      1,
      0,
      0,
      0
    ],
    [
      0,
      0,
      1,
      0
    ],
    [
      0,
      0,
      0,
      1
    ]
  ],
  "dcmmeta_shape": [
    104,
    104,
    72,
    600
  ],
  "dcmmeta_slice_dim": 2,
  "dcmmeta_version": 0.6,
  "time": {
    "samples": {
      "AcquisitionNumber": [
        1,
        2,
        3,
        4,
        5,
        6,
        7,
        8,
        9,
        10,
        11,
        12,
        13,
        14,
        15,
        16,
        17,
        18,
        19,
        20,
        21,
        22,
        23,
        24,
        25,
        26,
        27,
        28,
        29,
        30,
        31,
        32,
        33,
        34,
        35,
        36,
        37,
        38,
        39,
        40,
        41,
        42,
        43,
        44,
        45,
        46,
        47,
        48,
        49,
        50,
        51,
        52,
        53,
        54,
        55,
        56,
        57,
        58,
        59,
        60,
        61,
        62,
        63,
        64,
        65,
        66,
        67,
        68,
        69,
        70,
        71,
        72,
        73,
        74,
        75,
        76,
        77,
        78,
        79,
        80,
        81,
        82,
        83,
        84,
        85,
        86,
        87,
        88,
        89,
        90,
        91,
        92,
        93,
        94,
        95,
        96,
        97,
        98,
        99,
        100,
        101,
        102,
        103,
        104,
        105,
        106,
        107,
        108,
        109,
        110,
        111,
        112,
        113,
        114,
        115,
        116,
        117,
        118,
        119,
        120,
        121,
        122,
        123,
        124,
        125,
        126,
        127,
        128,
        129,
        130,
        131,
        132,
        133,
        134,
        135,
        136,
        137,
        138,
        139,
        140,
        141,
        142,
        143,
        144,
        145,
        146,
        147,
        148,
        149,
        150,
        151,
        152,
        153,
        154,
        155,
        156,
        157,
        158,
        159,
        160,
        161,
        162,
        163,
        164,
        165,
        166,
        167,
        168,
        169,
        170,
        171,
        172,
        173,
        174,
        175,
        176,
        177,
        178,
        179,
        180,
        181,
        182,
        183,
        184,
        185,
        186,
        187,
        188,
        189,
        190,
        191,
        192,
        193,
        194,
        195,
        196,
        197,
        198,
        199,
        200,
        201,
        202,
        203,
        204,
        205,
        206,
        207,
        208,
        209,
        210,
        211,
        212,
        213,
        214,
        215,
        216,
        217,
        218,
        219,
        220,
        221,
        222,
        223,
        224,
        225,
        226,
        227,
        228,
        229,
        230,
        231,
        232,
        233,
        234,
        235,
        236,
        237,
        238,
        239,
        240,
        241,
        242,
        243,
        244,
        245,
        246,
        247,
        248,
        249,
        250,
        251,
        252,
        253,
        254,
        255,
        256,
        257,
        258,
        259,
        260,
        261,
        262,
        263,
        264,
        265,
        266,
        267,
        268,
        269,
        270,
        271,
        272,
        273,
        274,
        275,
        276,
        277,
        278,
        279,
        280,
        281,
        282,
        283,
        284,
        285,
        286,
        287,
        288,
        289,
        290,
        291,
        292,
        293,
        294,
        295,
        296,
        297,
        298,
        299,
        300,
        301,
        302,
        303,
        304,
        305,
        306,
        307,
        308,
        309,
        310,
        311,
        312,
        313,
        314,
        315,
        316,
        317,
        318,
        319,
        320,
        321,
        322,
        323,
        324,
        325,
        326,
        327,
        328,
        329,
        330,
        331,
        332,
        333,
        334,
        335,
        336,
        337,
        338,
        339,
        340,
        341,
        342,
        343,
        344,
        345,
        346,
        347,
        348,
        349,
        350,
        351,
        352,
        353,
        354,
        355,
        356,
        357,
        358,
        359,
        360,
        361,
        362,
        363,
        364,
        365,
        366,
        367,
        368,
        369,
        370,
        371,
        372,
        373,
        374,
        375,
        376,
        377,
        378,
        379,
        380,
        381,
        382,
        383,
        384,
        385,
        386,
        387,
        388,
        389,
        390,
        391,
        392,
        393,
        394,
        395,
        396,
        397,
        398,
        399,
        400,
        401,
        402,
        403,
        404,
        405,
        406,
        407,
        408,
        409,
        410,
        411,
        412,
        413,
        414,
        415,
        416,
        417,
        418,
        419,
        420,
        421,
        422,
        423,
        424,
        425,
        426,
        427,
        428,
        429,
        430,
        431,
        432,
        433,
        434,
        435,
        436,
        437,
        438,
        439,
        440,
        441,
        442,
        443,
        444,
        445,
        446,
        447,
        448,
        449,
        450,
        451,
        452,
        453,
        454,
        455,
        456,
        457,
        458,
        459,
        460,
        461,
        462,
        463,
        464,
        465,
        466,
        467,
        468,
        469,
        470,
        471,
        472,
        473,
        474,
        475,
        476,
        477,
        478,
        479,
        480,
        481,
        482,
        483,
        484,
        485,
        486,
        487,
        488,
        489,
        490,
        491,
        492,
        493,
        494,
        495,
        496,
        497,
        498,
        499,
        500,
        501,
        502,
        503,
        504,
        505,
        506,
        507,
        508,
        509,
        510,
        511,
        512,
        513,
        514,
        515,
        516,
        517,
        518,
        519,
        520,
        521,
        522,
        523,
        524,
        525,
        526,
        527,
        528,
        529,
        530,
        531,
        532,
        533,
        534,
        535,
        536,
        537,
        538,
        539,
        540,
        541,
        542,
        543,
        544,
        545,
        546,
        547,
        548,
        549,
        550,
        551,
        552,
        553,
        554,
        555,
        556,
        557,
        558,
        559,
        560,
        561,
        562,
        563,
        564,
        565,
        566,
        567,
        568,
        569,
        570,
        571,
        572,
        573,
        574,
        575,
        576,
        577,
        578,
        579,
        580,
        581,
        582,
        583,
        584,
        585,
        586,
        587,
        588,
        589,
        590,
        591,
        592,
        593,
        594,
        595,
        596,
        597,
        598,
        599,
        600
      ],
      "AcquisitionTime": [
        "103159.805000",
        "103200.605000",
        "103201.405000",
        "103202.205000",
        "103203.005000",
        "103203.805000",
        "103204.605000",
        "103205.405000",
        "103206.205000",
        "103207.005000",
        "103207.805000",
        "103208.605000",
        "103209.405000",
        "103210.205000",
        "103211.005000",
        "103211.805000",
        "103212.605000",
        "103213.405000",
        "103214.205000",
        "103215.005000",
        "103215.805000",
        "103216.605000",
        "103217.405000",
        "103218.205000",
        "103219.005000",
        "103219.805000",
        "103220.605000",
        "103221.405000",
        "103222.205000",
        "103223.005000",
        "103223.805000",
        "103224.605000",
        "103225.405000",
        "103226.205000",
        "103227.005000",
        "103227.805000",
        "103228.605000",
        "103229.405000",
        "103230.205000",
        "103231.005000",
        "103231.805000",
        "103232.605000",
        "103233.405000",
        "103234.205000",
        "103235.005000",
        "103235.805000",
        "103236.605000",
        "103237.405000",
        "103238.205000",
        "103239.005000",
        "103239.805000",
        "103240.605000",
        "103241.405000",
        "103242.205000",
        "103243.005000",
        "103243.805000",
        "103244.605000",
        "103245.405000",
        "103246.205000",
        "103247.005000",
        "103247.805000",
        "103248.605000",
        "103249.405000",
        "103250.205000",
        "103251.005000",
        "103251.805000",
        "103252.605000",
        "103253.405000",
        "103254.205000",
        "103255.005000",
        "103255.805000",
        "103256.605000",
        "103257.405000",
        "103258.205000",
        "103259.005000",
        "103259.805000",
        "103300.605000",
        "103301.405000",
        "103302.205000",
        "103303.005000",
        "103303.805000",
        "103304.605000",
        "103305.405000",
        "103306.205000",
        "103307.005000",
        "103307.805000",
        "103308.605000",
        "103309.405000",
        "103310.205000",
        "103311.005000",
        "103311.805000",
        "103312.605000",
        "103313.405000",
        "103314.205000",
        "103315.005000",
        "103315.805000",
        "103316.605000",
        "103317.405000",
        "103318.205000",
        "103319.005000",
        "103319.805000",
        "103320.605000",
        "103321.405000",
        "103322.205000",
        "103323.005000",
        "103323.805000",
        "103324.605000",
        "103325.405000",
        "103326.205000",
        "103327.005000",
        "103327.805000",
        "103328.605000",
        "103329.405000",
        "103330.205000",
        "103331.005000",
        "103331.805000",
        "103332.605000",
        "103333.405000",
        "103334.205000",
        "103335.005000",
        "103335.805000",
        "103336.605000",
        "103337.405000",
        "103338.205000",
        "103339.005000",
        "103339.805000",
        "103340.605000",
        "103341.405000",
        "103342.205000",
        "103343.005000",
        "103343.805000",
        "103344.605000",
        "103345.405000",
        "103346.205000",
        "103347.005000",
        "103347.805000",
        "103348.605000",
        "103349.405000",
        "103350.205000",
        "103351.005000",
        "103351.805000",
        "103352.605000",
        "103353.405000",
        "103354.205000",
        "103355.005000",
        "103355.805000",
        "103356.605000",
        "103357.405000",
        "103358.205000",
        "103359.005000",
        "103359.805000",
        "103400.605000",
        "103401.405000",
        "103402.205000",
        "103403.005000",
        "103403.805000",
        "103404.605000",
        "103405.405000",
        "103406.205000",
        "103407.005000",
        "103407.805000",
        "103408.605000",
        "103409.405000",
        "103410.205000",
        "103411.005000",
        "103411.805000",
        "103412.605000",
        "103413.405000",
        "103414.205000",
        "103415.005000",
        "103415.805000",
        "103416.605000",
        "103417.405000",
        "103418.205000",
        "103419.005000",
        "103419.805000",
        "103420.605000",
        "103421.405000",
        "103422.205000",
        "103423.005000",
        "103423.805000",
        "103424.605000",
        "103425.405000",
        "103426.205000",
        "103427.005000",
        "103427.805000",
        "103428.605000",
        "103429.405000",
        "103430.205000",
        "103431.005000",
        "103431.805000",
        "103432.605000",
        "103433.405000",
        "103434.205000",
        "103435.005000",
        "103435.805000",
        "103436.605000",
        "103437.405000",
        "103438.205000",
        "103439.005000",
        "103439.805000",
        "103440.605000",
        "103441.405000",
        "103442.205000",
        "103443.005000",
        "103443.805000",
        "103444.605000",
        "103445.405000",
        "103446.205000",
        "103447.005000",
        "103447.805000",
        "103448.605000",
        "103449.405000",
        "103450.205000",
        "103451.005000",
        "103451.805000",
        "103452.605000",
        "103453.405000",
        "103454.205000",
        "103455.005000",
        "103455.805000",
        "103456.605000",
        "103457.405000",
        "103458.205000",
        "103459.005000",
        "103459.805000",
        "103500.605000",
        "103501.405000",
        "103502.205000",
        "103503.005000",
        "103503.805000",
        "103504.605000",
        "103505.405000",
        "103506.205000",
        "103507.005000",
        "103507.805000",
        "103508.605000",
        "103509.405000",
        "103510.205000",
        "103511.005000",
        "103511.805000",
        "103512.605000",
        "103513.405000",
        "103514.205000",
        "103515.005000",
        "103515.805000",
        "103516.605000",
        "103517.405000",
        "103518.205000",
        "103519.005000",
        "103519.805000",
        "103520.605000",
        "103521.405000",
        "103522.205000",
        "103523.005000",
        "103523.805000",
        "103524.605000",
        "103525.405000",
        "103526.205000",
        "103527.005000",
        "103527.805000",
        "103528.605000",
        "103529.405000",
        "103530.205000",
        "103531.005000",
        "103531.805000",
        "103532.605000",
        "103533.405000",
        "103534.205000",
        "103535.005000",
        "103535.805000",
        "103536.605000",
        "103537.405000",
        "103538.205000",
        "103539.005000",
        "103539.805000",
        "103540.605000",
        "103541.405000",
        "103542.205000",
        "103543.005000",
        "103543.805000",
        "103544.605000",
        "103545.405000",
        "103546.205000",
        "103547.005000",
        "103547.805000",
        "103548.605000",
        "103549.405000",
        "103550.205000",
        "103551.005000",
        "103551.805000",
        "103552.605000",
        "103553.405000",
        "103554.205000",
        "103555.005000",
        "103555.805000",
        "103556.605000",
        "103557.405000",
        "103558.205000",
        "103559.005000",
        "103559.805000",
        "103600.605000",
        "103601.405000",
        "103602.205000",
        "103603.005000",
        "103603.805000",
        "103604.605000",
        "103605.405000",
        "103606.205000",
        "103607.005000",
        "103607.805000",
        "103608.605000",
        "103609.405000",
        "103610.205000",
        "103611.005000",
        "103611.805000",
        "103612.605000",
        "103613.405000",
        "103614.205000",
        "103615.005000",
        "103615.805000",
        "103616.605000",
        "103617.405000",
        "103618.205000",
        "103619.005000",
        "103619.805000",
        "103620.605000",
        "103621.405000",
        "103622.205000",
        "103623.005000",
        "103623.805000",
        "103624.605000",
        "103625.405000",
        "103626.205000",
        "103627.005000",
        "103627.805000",
        "103628.605000",
        "103629.405000",
        "103630.205000",
        "103631.005000",
        "103631.805000",
        "103632.605000",
        "103633.405000",
        "103634.205000",
        "103635.005000",
        "103635.805000",
        "103636.605000",
        "103637.405000",
        "103638.205000",
        "103639.005000",
        "103639.805000",
        "103640.605000",
        "103641.405000",
        "103642.205000",
        "103643.005000",
        "103643.805000",
        "103644.605000",
        "103645.405000",
        "103646.205000",
        "103647.005000",
        "103647.805000",
        "103648.605000",
        "103649.405000",
        "103650.205000",
        "103651.005000",
        "103651.805000",
        "103652.605000",
        "103653.405000",
        "103654.205000",
        "103655.005000",
        "103655.805000",
        "103656.605000",
        "103657.405000",
        "103658.205000",
        "103659.005000",
        "103659.805000",
        "103700.605000",
        "103701.405000",
        "103702.205000",
        "103703.005000",
        "103703.805000",
        "103704.605000",
        "103705.405000",
        "103706.205000",
        "103707.005000",
        "103707.805000",
        "103708.605000",
        "103709.405000",
        "103710.205000",
        "103711.005000",
        "103711.805000",
        "103712.605000",
        "103713.405000",
        "103714.205000",
        "103715.005000",
        "103715.805000",
        "103716.605000",
        "103717.405000",
        "103718.205000",
        "103719.005000",
        "103719.805000",
        "103720.605000",
        "103721.405000",
        "103722.205000",
        "103723.005000",
        "103723.805000",
        "103724.605000",
        "103725.405000",
        "103726.205000",
        "103727.005000",
        "103727.805000",
        "103728.605000",
        "103729.405000",
        "103730.205000",
        "103731.005000",
        "103731.805000",
        "103732.605000",
        "103733.405000",
        "103734.205000",
        "103735.005000",
        "103735.805000",
        "103736.605000",
        "103737.405000",
        "103738.205000",
        "103739.005000",
        "103739.805000",
        "103740.605000",
        "103741.405000",
        "103742.205000",
        "103743.005000",
        "103743.805000",
        "103744.605000",
        "103745.405000",
        "103746.205000",
        "103747.005000",
        "103747.805000",
        "103748.605000",
        "103749.405000",
        "103750.205000",
        "103751.005000",
        "103751.805000",
        "103752.605000",
        "103753.405000",
        "103754.205000",
        "103755.005000",
        "103755.805000",
        "103756.605000",
        "103757.405000",
        "103758.205000",
        "103759.005000",
        "103759.805000",
        "103800.605000",
        "103801.405000",
        "103802.205000",
        "103803.005000",
        "103803.805000",
        "103804.605000",
        "103805.405000",
        "103806.205000",
        "103807.005000",
        "103807.805000",
        "103808.605000",
        "103809.405000",
        "103810.205000",
        "103811.005000",
        "103811.805000",
        "103812.605000",
        "103813.405000",
        "103814.205000",
        "103815.005000",
        "103815.805000",
        "103816.605000",
        "103817.405000",
        "103818.205000",
        "103819.005000",
        "103819.805000",
        "103820.605000",
        "103821.405000",
        "103822.205000",
        "103823.005000",
        "103823.805000",
        "103824.605000",
        "103825.405000",
        "103826.205000",
        "103827.005000",
        "103827.805000",
        "103828.605000",
        "103829.405000",
        "103830.205000",
        "103831.005000",
        "103831.805000",
        "103832.605000",
        "103833.405000",
        "103834.205000",
        "103835.005000",
        "103835.805000",
        "103836.605000",
        "103837.405000",
        "103838.205000",
        "103839.005000",
        "103839.805000",
        "103840.605000",
        "103841.405000",
        "103842.205000",
        "103843.005000",
        "103843.805000",
        "103844.605000",
        "103845.405000",
        "103846.205000",
        "103847.005000",
        "103847.805000",
        "103848.605000",
        "103849.405000",
        "103850.205000",
        "103851.005000",
        "103851.805000",
        "103852.605000",
        "103853.405000",
        "103854.205000",
        "103855.005000",
        "103855.805000",
        "103856.605000",
        "103857.405000",
        "103858.205000",
        "103859.005000",
        "103859.805000",
        "103900.605000",
        "103901.405000",
        "103902.205000",
        "103903.005000",
        "103903.805000",
        "103904.605000",
        "103905.405000",
        "103906.205000",
        "103907.005000",
        "103907.805000",
        "103908.605000",
        "103909.405000",
        "103910.205000",
        "103911.005000",
        "103911.805000",
        "103912.605000",
        "103913.405000",
        "103914.205000",
        "103915.005000",
        "103915.805000",
        "103916.605000",
        "103917.405000",
        "103918.205000",
        "103919.005000",
        "103919.805000",
        "103920.605000",
        "103921.405000",
        "103922.205000",
        "103923.005000",
        "103923.805000",
        "103924.605000",
        "103925.405000",
        "103926.205000",
        "103927.005000",
        "103927.805000",
        "103928.605000",
        "103929.405000",
        "103930.205000",
        "103931.005000",
        "103931.805000",
        "103932.605000",
        "103933.405000",
        "103934.205000",
        "103935.005000",
        "103935.805000",
        "103936.605000",
        "103937.405000",
        "103938.205000",
        "103939.005000",
        "103939.805000",
        "103940.605000",
        "103941.405000",
        "103942.205000",
        "103943.005000",
        "103943.805000",
        "103944.605000",
        "103945.405000",
        "103946.205000",
        "103947.005000",
        "103947.805000",
        "103948.605000",
        "103949.405000",
        "103950.205000",
        "103951.005000",
        "103951.805000",
        "103952.605000",
        "103953.405000",
        "103954.205000",
        "103955.005000",
        "103955.805000",
        "103956.605000",
        "103957.405000",
        "103958.205000",
        "103959.005000"
      ],
      "ContentTime": [
        "103228.902000",
        "103228.915000",
        "103228.918000",
        "103228.921000",
        "103248.859000",
        "103248.862000",
        "103248.865000",
        "103248.868000",
        "103248.871000",
        "103248.874000",
        "103248.877000",
        "103248.880000",
        "103248.883000",
        "103248.885000",
        "103248.888000",
        "103248.891000",
        "103248.894000",
        "103248.897000",
        "103248.900000",
        "103248.903000",
        "103248.906000",
        "103248.909000",
        "103248.916000",
        "103248.919000",
        "103248.922000",
        "103248.924000",
        "103248.928000",
        "103248.930000",
        "103248.933000",
        "103248.936000",
        "103248.939000",
        "103248.942000",
        "103248.945000",
        "103248.948000",
        "103248.951000",
        "103248.954000",
        "103248.957000",
        "103248.959000",
        "103248.962000",
        "103248.965000",
        "103248.968000",
        "103248.971000",
        "103248.974000",
        "103248.977000",
        "103248.980000",
        "103248.983000",
        "103248.986000",
        "103248.989000",
        "103248.992000",
        "103248.995000",
        "103308.859000",
        "103308.863000",
        "103308.866000",
        "103308.869000",
        "103308.872000",
        "103308.875000",
        "103308.878000",
        "103308.881000",
        "103308.884000",
        "103308.887000",
        "103308.889000",
        "103308.892000",
        "103308.896000",
        "103308.899000",
        "103308.901000",
        "103308.904000",
        "103308.923000",
        "103308.926000",
        "103308.929000",
        "103308.933000",
        "103308.937000",
        "103308.940000",
        "103308.943000",
        "103308.946000",
        "103308.949000",
        "103308.952000",
        "103308.955000",
        "103308.958000",
        "103308.961000",
        "103308.964000",
        "103308.967000",
        "103308.970000",
        "103308.973000",
        "103308.976000",
        "103308.979000",
        "103328.859000",
        "103328.862000",
        "103328.865000",
        "103328.868000",
        "103328.871000",
        "103328.874000",
        "103328.877000",
        "103328.880000",
        "103328.882000",
        "103328.885000",
        "103328.888000",
        "103328.891000",
        "103328.894000",
        "103328.897000",
        "103328.900000",
        "103328.903000",
        "103328.907000",
        "103328.911000",
        "103328.913000",
        "103328.916000",
        "103328.924000",
        "103328.927000",
        "103328.930000",
        "103328.933000",
        "103328.935000",
        "103348.859000",
        "103348.862000",
        "103348.865000",
        "103348.869000",
        "103348.872000",
        "103348.875000",
        "103348.878000",
        "103348.881000",
        "103348.884000",
        "103348.887000",
        "103348.890000",
        "103348.893000",
