{
  "AcquisitionMatrixPE": 104,
  "AcquisitionNumber": 1,
  "AcquisitionTime": "09:29:28.190000",
  "BandwidthPerPixelPhaseEncode": 16.578,
  "BaseResolution": 104,
  "BodyPartExamined": "BRAIN",
  "CoilCombinationMethod": "Sum of Squares",
  "ConsistencyInfo": "N4_VE11C_LATEST_20160120",
  "ConversionSoftware": "dcm2niix",
  "ConversionSoftwareVersion": "v1.0.20220720",
  "DerivedVendorReportedEchoSpacing": 0.000580009,
  "DeviceSerialNumber": "67026",
  "DwellTime": 2.1e-06,
  "EchoTime": 0.037,
  "EchoTrainLength": 104,
  "EffectiveEchoSpacing": 0.000580009,
  "FlipAngle": 52,
  "HeudiconvVersion": "0.11.4",
  "ImageComments": "Unaliased MB8/PE3/LB",
  "ImageOrientationPatientDICOM": [
    0.997314,
    0.0196373,
    -0.0705661,
    -0.0466832,
    0.912785,
    -0.405763
  ],
  "ImageOrientationText": "Tra>Cor(-24.1)>Sag(-3.2)",
  "ImageType": [
    "ORIGINAL",
    "PRIMARY",
    "M",
    "MB",
    "ND",
    "MOSAIC"
  ],
  "ImagingFrequency": 123.173,
  "InPlanePhaseEncodingDirectionDICOM": "COL",
  "InstitutionAddress": "13th St. 149,Charlestown,MA,US,02129",
  "InstitutionName": "Martinos Center Bay 4 Prisma",
  "InstitutionalDepartmentName": "Martinos Center",
  "MRAcquisitionType": "2D",
  "MagneticFieldStrength": 3,
  "Manufacturer": "Siemens",
  "ManufacturersModelName": "Prisma_fit",
  "MatrixCoilMode": "SENSE",
  "Modality": "MR",
  "MultibandAccelerationFactor": 8,
  "NonlinearGradientCorrection": false,
  "PartialFourier": 1,
  "PatientPosition": "HFS",
  "PercentPhaseFOV": 100,
  "PercentSampling": 100,
  "PhaseEncodingDirection": "j-",
  "PhaseEncodingSteps": 104,
  "PhaseResolution": 1,
  "PixelBandwidth": 2290,
  "ProcedureStepDescription": "INVESTIGATORS^Greve",
  "ProtocolName": "rfMRI_REST_AP",
  "PulseSequenceDetails": "%CustomerSeq%\\hcp_mbep2d_bold",
  "ReceiveCoilActiveElements": "HEA;HEP",
  "ReceiveCoilName": "Head_32",
  "ReconMatrixPE": 104,
  "RepetitionTime": 0.8,
  "SAR": 0.0717437,
  "ScanOptions": "FS\\EXT",
  "ScanningSequence": "EP",
  "SequenceName": "epfid2d1_104",
  "SequenceVariant": "SK\\SS",
  "SeriesDescription": "rfMRI_REST_AP",
  "SeriesNumber": 59,
  "ShimSetting": [
    -1218,
    -10520,
    -10118,
    261,
    282,
    57,
    -93,
    -1
  ],
  "SliceThickness": 2,
  "SliceTiming": [
    0,
    0.435,
    0.0875,
    0.52,
    0.175,
    0.6075,
    0.26,
    0.695,
    0.3475,
    0,
    0.435,
    0.0875,
    0.52,
    0.175,
    0.6075,
    0.26,
    0.695,
    0.3475,
    0,
    0.435,
    0.0875,
    0.52,
    0.175,
    0.6075,
    0.26,
    0.695,
    0.3475,
    0,
    0.435,
    0.0875,
    0.52,
    0.175,
    0.6075,
    0.26,
    0.695,
    0.3475,
    0,
    0.435,
    0.0875,
    0.52,
    0.175,
    0.6075,
    0.26,
    0.695,
    0.3475,
    0,
    0.435,
    0.0875,
    0.52,
    0.175,
    0.6075,
    0.26,
    0.695,
    0.3475,
    0,
    0.435,
    0.0875,
    0.52,
    0.175,
    0.6075,
    0.26,
    0.695,
    0.3475,
    0,
    0.435,
    0.0875,
    0.52,
    0.175,
    0.6075,
    0.26,
    0.695,
    0.3475
  ],
  "SoftwareVersions": "syngo MR E11",
  "SpacingBetweenSlices": 2,
  "StationName": "BAY4OC",
  "TaskName": "rest",
  "TotalReadoutTime": 0.0597409,
  "TxRefAmp": 241.394,
  "WipMemBlock": "1fc4dba9-7ae3-43e3-b882-9b330db57f93||Sequence: ve11c/master r/5b0256d+; Dec  9 2016 09:38:51 by eja",
  "dcmmeta_affine": [
    [
      -1.994627594947815,
      -0.0933663621544838,
      -0.11288727819919586,
      107.61648559570312
    ],
    [
      -0.039274632930755615,
      1.8255707025527954,
      -0.8159345984458923,
      -52.79620361328125
    ],
    [
      -0.14113228023052216,
      0.8115260004997253,
      1.8225003480911255,
      -103.6546859741211
    ],
    [
      0,
      0,
      0,
      1
    ]
  ],
  "dcmmeta_reorient_transform": [
    [
      0,
      -1,
      0,
      103
    ],
    [
      1,
      0,
      0,
      0
    ],
    [
      0,
      0,
      1,
      0
    ],
    [
      0,
      0,
      0,
      1
    ]
  ],
  "dcmmeta_shape": [
    104,
    104,
    72,
    600
  ],
  "dcmmeta_slice_dim": 2,
  "dcmmeta_version": 0.6,
  "time": {
    "samples": {
      "AcquisitionNumber": [
        1,
        2,
        3,
        4,
        5,
        6,
        7,
        8,
        9,
        10,
        11,
        12,
        13,
        14,
        15,
        16,
        17,
        18,
        19,
        20,
        21,
        22,
        23,
        24,
        25,
        26,
        27,
        28,
        29,
        30,
        31,
        32,
        33,
        34,
        35,
        36,
        37,
        38,
        39,
        40,
        41,
        42,
        43,
        44,
        45,
        46,
        47,
        48,
        49,
        50,
        51,
        52,
        53,
        54,
        55,
        56,
        57,
        58,
        59,
        60,
        61,
        62,
        63,
        64,
        65,
        66,
        67,
        68,
        69,
        70,
        71,
        72,
        73,
        74,
        75,
        76,
        77,
        78,
        79,
        80,
        81,
        82,
        83,
        84,
        85,
        86,
        87,
        88,
        89,
        90,
        91,
        92,
        93,
        94,
        95,
        96,
        97,
        98,
        99,
        100,
        101,
        102,
        103,
        104,
        105,
        106,
        107,
        108,
        109,
        110,
        111,
        112,
        113,
        114,
        115,
        116,
        117,
        118,
        119,
        120,
        121,
        122,
        123,
        124,
        125,
        126,
        127,
        128,
        129,
        130,
        131,
        132,
        133,
        134,
        135,
        136,
        137,
        138,
        139,
        140,
        141,
        142,
        143,
        144,
        145,
        146,
        147,
        148,
        149,
        150,
        151,
        152,
        153,
        154,
        155,
        156,
        157,
        158,
        159,
        160,
        161,
        162,
        163,
        164,
        165,
        166,
        167,
        168,
        169,
        170,
        171,
        172,
        173,
        174,
        175,
        176,
        177,
        178,
        179,
        180,
        181,
        182,
        183,
        184,
        185,
        186,
        187,
        188,
        189,
        190,
        191,
        192,
        193,
        194,
        195,
        196,
        197,
        198,
        199,
        200,
        201,
        202,
        203,
        204,
        205,
        206,
        207,
        208,
        209,
        210,
        211,
        212,
        213,
        214,
        215,
        216,
        217,
        218,
        219,
        220,
        221,
        222,
        223,
        224,
        225,
        226,
        227,
        228,
        229,
        230,
        231,
        232,
        233,
        234,
        235,
        236,
        237,
        238,
        239,
        240,
        241,
        242,
        243,
        244,
        245,
        246,
        247,
        248,
        249,
        250,
        251,
        252,
        253,
        254,
        255,
        256,
        257,
        258,
        259,
        260,
        261,
        262,
        263,
        264,
        265,
        266,
        267,
        268,
        269,
        270,
        271,
        272,
        273,
        274,
        275,
        276,
        277,
        278,
        279,
        280,
        281,
        282,
        283,
        284,
        285,
        286,
        287,
        288,
        289,
        290,
        291,
        292,
        293,
        294,
        295,
        296,
        297,
        298,
        299,
        300,
        301,
        302,
        303,
        304,
        305,
        306,
        307,
        308,
        309,
        310,
        311,
        312,
        313,
        314,
        315,
        316,
        317,
        318,
        319,
        320,
        321,
        322,
        323,
        324,
        325,
        326,
        327,
        328,
        329,
        330,
        331,
        332,
        333,
        334,
        335,
        336,
        337,
        338,
        339,
        340,
        341,
        342,
        343,
        344,
        345,
        346,
        347,
        348,
        349,
        350,
        351,
        352,
        353,
        354,
        355,
        356,
        357,
        358,
        359,
        360,
        361,
        362,
        363,
        364,
        365,
        366,
        367,
        368,
        369,
        370,
        371,
        372,
        373,
        374,
        375,
        376,
        377,
        378,
        379,
        380,
        381,
        382,
        383,
        384,
        385,
        386,
        387,
        388,
        389,
        390,
        391,
        392,
        393,
        394,
        395,
        396,
        397,
        398,
        399,
        400,
        401,
        402,
        403,
        404,
        405,
        406,
        407,
        408,
        409,
        410,
        411,
        412,
        413,
        414,
        415,
        416,
        417,
        418,
        419,
        420,
        421,
        422,
        423,
        424,
        425,
        426,
        427,
        428,
        429,
        430,
        431,
        432,
        433,
        434,
        435,
        436,
        437,
        438,
        439,
        440,
        441,
        442,
        443,
        444,
        445,
        446,
        447,
        448,
        449,
        450,
        451,
        452,
        453,
        454,
        455,
        456,
        457,
        458,
        459,
        460,
        461,
        462,
        463,
        464,
        465,
        466,
        467,
        468,
        469,
        470,
        471,
        472,
        473,
        474,
        475,
        476,
        477,
        478,
        479,
        480,
        481,
        482,
        483,
        484,
        485,
        486,
        487,
        488,
        489,
        490,
        491,
        492,
        493,
        494,
        495,
        496,
        497,
        498,
        499,
        500,
        501,
        502,
        503,
        504,
        505,
        506,
        507,
        508,
        509,
        510,
        511,
        512,
        513,
        514,
        515,
        516,
        517,
        518,
        519,
        520,
        521,
        522,
        523,
        524,
        525,
        526,
        527,
        528,
        529,
        530,
        531,
        532,
        533,
        534,
        535,
        536,
        537,
        538,
        539,
        540,
        541,
        542,
        543,
        544,
        545,
        546,
        547,
        548,
        549,
        550,
        551,
        552,
        553,
        554,
        555,
        556,
        557,
        558,
        559,
        560,
        561,
        562,
        563,
        564,
        565,
        566,
        567,
        568,
        569,
        570,
        571,
        572,
        573,
        574,
        575,
        576,
        577,
        578,
        579,
        580,
        581,
        582,
        583,
        584,
        585,
        586,
        587,
        588,
        589,
        590,
        591,
        592,
        593,
        594,
        595,
        596,
        597,
        598,
        599,
        600
      ],
      "AcquisitionTime": [
        "092928.190000",
        "092928.990000",
        "092929.790000",
        "092930.590000",
        "092931.390000",
        "092932.190000",
        "092932.990000",
        "092933.790000",
        "092934.590000",
        "092935.390000",
        "092936.190000",
        "092936.990000",
        "092937.790000",
        "092938.590000",
        "092939.390000",
        "092940.190000",
        "092940.990000",
        "092941.790000",
        "092942.590000",
        "092943.390000",
        "092944.190000",
        "092944.990000",
        "092945.790000",
        "092946.590000",
        "092947.390000",
        "092948.190000",
        "092948.990000",
        "092949.790000",
        "092950.590000",
        "092951.390000",
        "092952.190000",
        "092952.990000",
        "092953.790000",
        "092954.590000",
        "092955.390000",
        "092956.190000",
        "092956.990000",
        "092957.790000",
        "092958.590000",
        "092959.390000",
        "093000.190000",
        "093000.990000",
        "093001.790000",
        "093002.590000",
        "093003.390000",
        "093004.190000",
        "093004.990000",
        "093005.790000",
        "093006.590000",
        "093007.390000",
        "093008.190000",
        "093008.990000",
        "093009.790000",
        "093010.590000",
        "093011.390000",
        "093012.190000",
        "093012.990000",
        "093013.790000",
        "093014.590000",
        "093015.390000",
        "093016.190000",
        "093016.990000",
        "093017.790000",
        "093018.590000",
        "093019.390000",
        "093020.190000",
        "093020.990000",
        "093021.790000",
        "093022.590000",
        "093023.390000",
        "093024.190000",
        "093024.990000",
        "093025.790000",
        "093026.590000",
        "093027.390000",
        "093028.190000",
        "093028.990000",
        "093029.790000",
        "093030.590000",
        "093031.390000",
        "093032.190000",
        "093032.990000",
        "093033.790000",
        "093034.590000",
        "093035.390000",
        "093036.190000",
        "093036.990000",
        "093037.790000",
        "093038.590000",
        "093039.390000",
        "093040.190000",
        "093040.990000",
        "093041.790000",
        "093042.590000",
        "093043.390000",
        "093044.190000",
        "093044.990000",
        "093045.790000",
        "093046.590000",
        "093047.390000",
        "093048.190000",
        "093048.990000",
        "093049.790000",
        "093050.590000",
        "093051.390000",
        "093052.190000",
        "093052.990000",
        "093053.790000",
        "093054.590000",
        "093055.390000",
        "093056.190000",
        "093056.990000",
        "093057.790000",
        "093058.590000",
        "093059.390000",
        "093100.190000",
        "093100.990000",
        "093101.790000",
        "093102.590000",
        "093103.390000",
        "093104.190000",
        "093104.990000",
        "093105.790000",
        "093106.590000",
        "093107.390000",
        "093108.190000",
        "093108.990000",
        "093109.790000",
        "093110.590000",
        "093111.390000",
        "093112.190000",
        "093112.990000",
        "093113.790000",
        "093114.590000",
        "093115.390000",
        "093116.190000",
        "093116.990000",
        "093117.790000",
        "093118.590000",
        "093119.390000",
        "093120.190000",
        "093120.990000",
        "093121.790000",
        "093122.590000",
        "093123.390000",
        "093124.190000",
        "093124.990000",
        "093125.790000",
        "093126.590000",
        "093127.390000",
        "093128.190000",
        "093128.990000",
        "093129.790000",
        "093130.590000",
        "093131.390000",
        "093132.190000",
        "093132.990000",
        "093133.790000",
        "093134.590000",
        "093135.390000",
        "093136.190000",
        "093136.990000",
        "093137.790000",
        "093138.590000",
        "093139.390000",
        "093140.190000",
        "093140.990000",
        "093141.790000",
        "093142.590000",
        "093143.390000",
        "093144.190000",
        "093144.990000",
        "093145.790000",
        "093146.590000",
        "093147.390000",
        "093148.190000",
        "093148.990000",
        "093149.790000",
        "093150.590000",
        "093151.390000",
        "093152.190000",
        "093152.990000",
        "093153.790000",
        "093154.590000",
        "093155.390000",
        "093156.190000",
        "093156.990000",
        "093157.790000",
        "093158.590000",
        "093159.390000",
        "093200.190000",
        "093200.990000",
        "093201.790000",
        "093202.590000",
        "093203.390000",
        "093204.190000",
        "093204.990000",
        "093205.790000",
        "093206.590000",
        "093207.390000",
        "093208.190000",
        "093208.990000",
        "093209.790000",
        "093210.590000",
        "093211.390000",
        "093212.190000",
        "093212.990000",
        "093213.790000",
        "093214.590000",
        "093215.390000",
        "093216.190000",
        "093216.990000",
        "093217.790000",
        "093218.590000",
        "093219.390000",
        "093220.190000",
        "093220.990000",
        "093221.790000",
        "093222.590000",
        "093223.390000",
        "093224.190000",
        "093224.990000",
        "093225.790000",
        "093226.590000",
        "093227.390000",
        "093228.190000",
        "093228.990000",
        "093229.790000",
        "093230.590000",
        "093231.390000",
        "093232.190000",
        "093232.990000",
        "093233.790000",
        "093234.590000",
        "093235.390000",
        "093236.190000",
        "093236.990000",
        "093237.790000",
        "093238.590000",
        "093239.390000",
        "093240.190000",
        "093240.990000",
        "093241.790000",
        "093242.590000",
        "093243.390000",
        "093244.190000",
        "093244.990000",
        "093245.790000",
        "093246.590000",
        "093247.390000",
        "093248.190000",
        "093248.990000",
        "093249.790000",
        "093250.590000",
        "093251.390000",
        "093252.190000",
        "093252.990000",
        "093253.790000",
        "093254.590000",
        "093255.390000",
        "093256.190000",
        "093256.990000",
        "093257.790000",
        "093258.590000",
        "093259.390000",
        "093300.190000",
        "093300.990000",
        "093301.790000",
        "093302.590000",
        "093303.390000",
        "093304.190000",
        "093304.990000",
        "093305.790000",
        "093306.590000",
        "093307.390000",
        "093308.190000",
        "093308.990000",
        "093309.790000",
        "093310.590000",
        "093311.390000",
        "093312.190000",
        "093312.990000",
        "093313.790000",
        "093314.590000",
        "093315.390000",
        "093316.190000",
        "093316.990000",
        "093317.790000",
        "093318.590000",
        "093319.390000",
        "093320.190000",
        "093320.990000",
        "093321.790000",
        "093322.590000",
        "093323.390000",
        "093324.190000",
        "093324.990000",
        "093325.790000",
        "093326.590000",
        "093327.390000",
        "093328.190000",
        "093328.990000",
        "093329.790000",
        "093330.590000",
        "093331.390000",
        "093332.190000",
        "093332.990000",
        "093333.790000",
        "093334.590000",
        "093335.390000",
        "093336.190000",
        "093336.990000",
        "093337.790000",
        "093338.590000",
        "093339.390000",
        "093340.190000",
        "093340.990000",
        "093341.790000",
        "093342.590000",
        "093343.390000",
        "093344.190000",
        "093344.990000",
        "093345.790000",
        "093346.590000",
        "093347.390000",
        "093348.190000",
        "093348.990000",
        "093349.790000",
        "093350.590000",
        "093351.390000",
        "093352.190000",
        "093352.990000",
        "093353.790000",
        "093354.590000",
        "093355.390000",
        "093356.190000",
        "093356.990000",
        "093357.790000",
        "093358.590000",
        "093359.390000",
        "093400.190000",
        "093400.990000",
        "093401.790000",
        "093402.590000",
        "093403.390000",
        "093404.190000",
        "093404.990000",
        "093405.790000",
        "093406.590000",
        "093407.390000",
        "093408.190000",
        "093408.990000",
        "093409.790000",
        "093410.590000",
        "093411.390000",
        "093412.190000",
        "093412.990000",
        "093413.790000",
        "093414.590000",
        "093415.390000",
        "093416.190000",
        "093416.990000",
        "093417.790000",
        "093418.590000",
        "093419.390000",
        "093420.190000",
        "093420.990000",
        "093421.790000",
        "093422.590000",
        "093423.390000",
        "093424.190000",
        "093424.990000",
        "093425.790000",
        "093426.590000",
        "093427.390000",
        "093428.190000",
        "093428.990000",
        "093429.790000",
        "093430.590000",
        "093431.390000",
        "093432.190000",
        "093432.990000",
        "093433.790000",
        "093434.590000",
        "093435.390000",
        "093436.190000",
        "093436.990000",
        "093437.790000",
        "093438.590000",
        "093439.390000",
        "093440.190000",
        "093440.990000",
        "093441.790000",
        "093442.590000",
        "093443.390000",
        "093444.190000",
        "093444.990000",
        "093445.790000",
        "093446.590000",
        "093447.390000",
        "093448.190000",
        "093448.990000",
        "093449.790000",
        "093450.590000",
        "093451.390000",
        "093452.190000",
        "093452.990000",
        "093453.790000",
        "093454.590000",
        "093455.390000",
        "093456.190000",
        "093456.990000",
        "093457.790000",
        "093458.590000",
        "093459.390000",
        "093500.190000",
        "093500.990000",
        "093501.790000",
        "093502.590000",
        "093503.390000",
        "093504.190000",
        "093504.990000",
        "093505.790000",
        "093506.590000",
        "093507.390000",
        "093508.190000",
        "093508.990000",
        "093509.790000",
        "093510.590000",
        "093511.390000",
        "093512.190000",
        "093512.990000",
        "093513.790000",
        "093514.590000",
        "093515.390000",
        "093516.190000",
        "093516.990000",
        "093517.790000",
        "093518.590000",
        "093519.390000",
        "093520.190000",
        "093520.990000",
        "093521.790000",
        "093522.590000",
        "093523.390000",
        "093524.190000",
        "093524.990000",
        "093525.790000",
        "093526.590000",
        "093527.390000",
        "093528.190000",
        "093528.990000",
        "093529.790000",
        "093530.590000",
        "093531.390000",
        "093532.190000",
        "093532.990000",
        "093533.790000",
        "093534.590000",
        "093535.390000",
        "093536.190000",
        "093536.990000",
        "093537.790000",
        "093538.590000",
        "093539.390000",
        "093540.190000",
        "093540.990000",
        "093541.790000",
        "093542.590000",
        "093543.390000",
        "093544.190000",
        "093544.990000",
        "093545.790000",
        "093546.590000",
        "093547.390000",
        "093548.190000",
        "093548.990000",
        "093549.790000",
        "093550.590000",
        "093551.390000",
        "093552.190000",
        "093552.990000",
        "093553.790000",
        "093554.590000",
        "093555.390000",
        "093556.190000",
        "093556.990000",
        "093557.790000",
        "093558.590000",
        "093559.390000",
        "093600.190000",
        "093600.990000",
        "093601.790000",
        "093602.590000",
        "093603.390000",
        "093604.190000",
        "093604.990000",
        "093605.790000",
        "093606.590000",
        "093607.390000",
        "093608.190000",
        "093608.990000",
        "093609.790000",
        "093610.590000",
        "093611.390000",
        "093612.190000",
        "093612.990000",
        "093613.790000",
        "093614.590000",
        "093615.390000",
        "093616.190000",
        "093616.990000",
        "093617.790000",
        "093618.590000",
        "093619.390000",
        "093620.190000",
        "093620.990000",
        "093621.790000",
        "093622.590000",
        "093623.390000",
        "093624.190000",
        "093624.990000",
        "093625.790000",
        "093626.590000",
        "093627.390000",
        "093628.190000",
        "093628.990000",
        "093629.790000",
        "093630.590000",
        "093631.390000",
        "093632.190000",
        "093632.990000",
        "093633.790000",
        "093634.590000",
        "093635.390000",
        "093636.190000",
        "093636.990000",
        "093637.790000",
        "093638.590000",
        "093639.390000",
        "093640.190000",
        "093640.990000",
        "093641.790000",
        "093642.590000",
        "093643.390000",
        "093644.190000",
        "093644.990000",
        "093645.790000",
        "093646.590000",
        "093647.390000",
        "093648.190000",
        "093648.990000",
        "093649.790000",
        "093650.590000",
        "093651.390000",
        "093652.190000",
        "093652.990000",
        "093653.790000",
        "093654.590000",
        "093655.390000",
        "093656.190000",
        "093656.990000",
        "093657.790000",
        "093658.590000",
        "093659.390000",
        "093700.190000",
        "093700.990000",
        "093701.790000",
        "093702.590000",
        "093703.390000",
        "093704.190000",
        "093704.990000",
        "093705.790000",
        "093706.590000",
        "093707.390000",
        "093708.190000",
        "093708.990000",
        "093709.790000",
        "093710.590000",
        "093711.390000",
        "093712.190000",
        "093712.990000",
        "093713.790000",
        "093714.590000",
        "093715.390000",
        "093716.190000",
        "093716.990000",
        "093717.790000",
        "093718.590000",
        "093719.390000",
        "093720.190000",
        "093720.990000",
        "093721.790000",
        "093722.590000",
        "093723.390000",
        "093724.190000",
        "093724.990000",
        "093725.790000",
        "093726.590000",
        "093727.390000"
      ],
      "ContentTime": [
        "093013.345000",
        "093013.349000",
        "093013.352000",
        "093013.355000",
        "093013.358000",
        "093013.361000",
        "093013.364000",
        "093013.367000",
        "093013.370000",
        "093013.373000",
        "093013.383000",
        "093013.386000",
        "093013.389000",
        "093013.392000",
        "093013.395000",
        "093013.397000",
        "093013.400000",
        "093013.403000",
        "093013.406000",
        "093013.409000",
        "093013.412000",
        "093013.415000",
        "093013.417000",
        "093013.420000",
        "093013.423000",
        "093013.426000",
        "093013.429000",
        "093013.432000",
        "093013.434000",
        "093013.437000",
        "093013.440000",
        "093013.443000",
        "093013.446000",
        "093013.449000",
        "093013.452000",
        "093013.455000",
        "093013.457000",
        "093013.460000",
        "093013.463000",
        "093013.466000",
        "093013.469000",
        "093013.472000",
        "093033.301000",
        "093033.305000",
        "093033.307000",
        "093033.310000",
        "093033.313000",
        "093033.316000",
        "093033.319000",
        "093033.322000",
        "093033.325000",
        "093033.328000",
        "093033.331000",
        "093033.333000",
        "093033.337000",
        "093033.339000",
        "093033.342000",
        "093033.345000",
        "093033.348000",
        "093033.351000",
        "093033.354000",
        "093033.357000",
        "093033.360000",
        "093033.362000",
        "093033.365000",
        "093033.368000",
        "093033.371000",
        "093033.374000",
        "093033.377000",
        "093033.380000",
        "093033.383000",
        "093033.386000",
        "093033.388000",
        "093033.391000",
        "093033.394000",
        "093033.397000",
        "093033.400000",
        "093033.403000",
        "093033.406000",
        "093033.409000",
        "093053.300000",
        "093053.303000",
        "093053.306000",
        "093053.309000",
        "093053.312000",
        "093053.315000",
        "093053.318000",
        "093053.320000",
        "093053.323000",
        "093053.326000",
        "093053.329000",
        "093053.332000",
        "093053.335000",
        "093053.338000",
        "093053.341000",
        "093053.344000",
        "093053.347000",
        "093053.349000",
        "093053.352000",
        "093053.355000",
        "093053.358000",
        "093053.361000",
        "093053.364000",
        "093053.367000",
        "093053.370000",
        "093113.300000",
        "093113.303000",
        "093113.306000",
        "093113.309000",
        "093113.312000",
        "093113.315000",
        "093113.318000",
        "093113.321000",
        "093113.323000",
        "093113.326000",
        "093113.329000",
        "093113.332000",
        "093113.335000",
        "093113.338000",
        "093113.341000",
        "093113.344000",
        "093113.352000",
