{
  "AcquisitionMatrixPE": 104,
  "AcquisitionNumber": 1,
  "AcquisitionTime": "08:21:46.152500",
  "BandwidthPerPixelPhaseEncode": 16.578,
  "BaseResolution": 104,
  "BodyPartExamined": "BRAIN",
  "CoilCombinationMethod": "Sum of Squares",
  "ConsistencyInfo": "N4_VE11C_LATEST_20160120",
  "ConversionSoftware": "dcm2niix",
  "ConversionSoftwareVersion": "v1.0.20220720",
  "DerivedVendorReportedEchoSpacing": 0.000580009,
  "DeviceSerialNumber": "67026",
  "DwellTime": 2.1e-06,
  "EchoTime": 0.037,
  "EchoTrainLength": 104,
  "EffectiveEchoSpacing": 0.000580009,
  "FlipAngle": 52,
  "HeudiconvVersion": "0.11.4",
  "ImageComments": "Unaliased MB8/PE3/LB",
  "ImageOrientationPatientDICOM": [
    0.99476,
    -0.0687023,
    0.0757127,
    0.0854559,
    0.965271,
    -0.246878
  ],
  "ImageOrientationText": "Tra>Cor(-14.6)>Sag(3.2)",
  "ImageType": [
    "ORIGINAL",
    "PRIMARY",
    "M",
    "MB",
    "ND",
    "MOSAIC"
  ],
  "ImagingFrequency": 123.227,
  "InPlanePhaseEncodingDirectionDICOM": "COL",
  "InstitutionAddress": "13th St. 149,Charlestown,MA,US,02129",
  "InstitutionName": "Martinos Center Bay 4 Prisma",
  "InstitutionalDepartmentName": "Martinos Center",
  "MRAcquisitionType": "2D",
  "MagneticFieldStrength": 3,
  "Manufacturer": "Siemens",
  "ManufacturersModelName": "Prisma_fit",
  "MatrixCoilMode": "SENSE",
  "Modality": "MR",
  "MultibandAccelerationFactor": 8,
  "NonlinearGradientCorrection": false,
  "PartialFourier": 1,
  "PatientPosition": "HFS",
  "PercentPhaseFOV": 100,
  "PercentSampling": 100,
  "PhaseEncodingDirection": "j-",
  "PhaseEncodingSteps": 104,
  "PhaseResolution": 1,
  "PixelBandwidth": 2290,
  "ProcedureStepDescription": "INVESTIGATORS^Greve",
  "ProtocolName": "rfMRI_REST_AP",
  "PulseSequenceDetails": "%CustomerSeq%\\hcp_mbep2d_bold",
  "ReceiveCoilActiveElements": "HEA;HEP",
  "ReceiveCoilName": "Head_32",
  "ReconMatrixPE": 104,
  "RepetitionTime": 0.8,
  "SAR": 0.0810963,
  "ScanOptions": "FS\\EXT",
  "ScanningSequence": "EP",
  "SequenceName": "epfid2d1_104",
  "SequenceVariant": "SK\\SS",
  "SeriesDescription": "rfMRI_REST_AP",
  "SeriesNumber": 19,
  "ShimSetting": [
    -1250,
    -10381,
    -10207,
    342,
    38,
    159,
    96,
    -30
  ],
  "SliceThickness": 2,
  "SliceTiming": [
    0,
    0.435,
    0.0875,
    0.52,
    0.175,
    0.6075,
    0.26,
    0.695,
    0.3475,
    0,
    0.435,
    0.0875,
    0.52,
    0.175,
    0.6075,
    0.26,
    0.695,
    0.3475,
    0,
    0.435,
    0.0875,
    0.52,
    0.175,
    0.6075,
    0.26,
    0.695,
    0.3475,
    0,
    0.435,
    0.0875,
    0.52,
    0.175,
    0.6075,
    0.26,
    0.695,
    0.3475,
    0,
    0.435,
    0.0875,
    0.52,
    0.175,
    0.6075,
    0.26,
    0.695,
    0.3475,
    0,
    0.435,
    0.0875,
    0.52,
    0.175,
    0.6075,
    0.26,
    0.695,
    0.3475,
    0,
    0.435,
    0.0875,
    0.52,
    0.175,
    0.6075,
    0.26,
    0.695,
    0.3475,
    0,
    0.435,
    0.0875,
    0.52,
    0.175,
    0.6075,
    0.26,
    0.695,
    0.3475
  ],
  "SoftwareVersions": "syngo MR E11",
  "SpacingBetweenSlices": 2,
  "StationName": "BAY4OC",
  "TaskName": "rest",
  "TotalReadoutTime": 0.0597409,
  "TxRefAmp": 279.4,
  "WipMemBlock": "b07b9b26-08bb-43d8-8a51-818b611adf66||Sequence: ve11c/master r/5b0256d+; Dec  9 2016 09:38:51 by eja",
  "dcmmeta_affine": [
    [
      -1.9895201921463013,
      0.17091180384159088,
      0.11224434524774551,
      97.98848724365234
    ],
    [
      0.13740456104278564,
      1.9305424690246582,
      -0.5041089057922363,
      -81.2738265991211
    ],
    [
      0.1514253169298172,
      0.49375593662261963,
      1.9321686029434204,
      -74.06019592285156
    ],
    [
      0,
      0,
      0,
      1
    ]
  ],
  "dcmmeta_reorient_transform": [
    [
      0,
      -1,
      0,
      103
    ],
    [
      1,
      0,
      0,
      0
    ],
    [
      0,
      0,
      1,
      0
    ],
    [
      0,
      0,
      0,
      1
    ]
  ],
  "dcmmeta_shape": [
    104,
    104,
    72,
    600
  ],
  "dcmmeta_slice_dim": 2,
  "dcmmeta_version": 0.6,
  "time": {
    "samples": {
      "AcquisitionNumber": [
        1,
        2,
        3,
        4,
        5,
        6,
        7,
        8,
        9,
        10,
        11,
        12,
        13,
        14,
        15,
        16,
        17,
        18,
        19,
        20,
        21,
        22,
        23,
        24,
        25,
        26,
        27,
        28,
        29,
        30,
        31,
        32,
        33,
        34,
        35,
        36,
        37,
        38,
        39,
        40,
        41,
        42,
        43,
        44,
        45,
        46,
        47,
        48,
        49,
        50,
        51,
        52,
        53,
        54,
        55,
        56,
        57,
        58,
        59,
        60,
        61,
        62,
        63,
        64,
        65,
        66,
        67,
        68,
        69,
        70,
        71,
        72,
        73,
        74,
        75,
        76,
        77,
        78,
        79,
        80,
        81,
        82,
        83,
        84,
        85,
        86,
        87,
        88,
        89,
        90,
        91,
        92,
        93,
        94,
        95,
        96,
        97,
        98,
        99,
        100,
        101,
        102,
        103,
        104,
        105,
        106,
        107,
        108,
        109,
        110,
        111,
        112,
        113,
        114,
        115,
        116,
        117,
        118,
        119,
        120,
        121,
        122,
        123,
        124,
        125,
        126,
        127,
        128,
        129,
        130,
        131,
        132,
        133,
        134,
        135,
        136,
        137,
        138,
        139,
        140,
        141,
        142,
        143,
        144,
        145,
        146,
        147,
        148,
        149,
        150,
        151,
        152,
        153,
        154,
        155,
        156,
        157,
        158,
        159,
        160,
        161,
        162,
        163,
        164,
        165,
        166,
        167,
        168,
        169,
        170,
        171,
        172,
        173,
        174,
        175,
        176,
        177,
        178,
        179,
        180,
        181,
        182,
        183,
        184,
        185,
        186,
        187,
        188,
        189,
        190,
        191,
        192,
        193,
        194,
        195,
        196,
        197,
        198,
        199,
        200,
        201,
        202,
        203,
        204,
        205,
        206,
        207,
        208,
        209,
        210,
        211,
        212,
        213,
        214,
        215,
        216,
        217,
        218,
        219,
        220,
        221,
        222,
        223,
        224,
        225,
        226,
        227,
        228,
        229,
        230,
        231,
        232,
        233,
        234,
        235,
        236,
        237,
        238,
        239,
        240,
        241,
        242,
        243,
        244,
        245,
        246,
        247,
        248,
        249,
        250,
        251,
        252,
        253,
        254,
        255,
        256,
        257,
        258,
        259,
        260,
        261,
        262,
        263,
        264,
        265,
        266,
        267,
        268,
        269,
        270,
        271,
        272,
        273,
        274,
        275,
        276,
        277,
        278,
        279,
        280,
        281,
        282,
        283,
        284,
        285,
        286,
        287,
        288,
        289,
        290,
        291,
        292,
        293,
        294,
        295,
        296,
        297,
        298,
        299,
        300,
        301,
        302,
        303,
        304,
        305,
        306,
        307,
        308,
        309,
        310,
        311,
        312,
        313,
        314,
        315,
        316,
        317,
        318,
        319,
        320,
        321,
        322,
        323,
        324,
        325,
        326,
        327,
        328,
        329,
        330,
        331,
        332,
        333,
        334,
        335,
        336,
        337,
        338,
        339,
        340,
        341,
        342,
        343,
        344,
        345,
        346,
        347,
        348,
        349,
        350,
        351,
        352,
        353,
        354,
        355,
        356,
        357,
        358,
        359,
        360,
        361,
        362,
        363,
        364,
        365,
        366,
        367,
        368,
        369,
        370,
        371,
        372,
        373,
        374,
        375,
        376,
        377,
        378,
        379,
        380,
        381,
        382,
        383,
        384,
        385,
        386,
        387,
        388,
        389,
        390,
        391,
        392,
        393,
        394,
        395,
        396,
        397,
        398,
        399,
        400,
        401,
        402,
        403,
        404,
        405,
        406,
        407,
        408,
        409,
        410,
        411,
        412,
        413,
        414,
        415,
        416,
        417,
        418,
        419,
        420,
        421,
        422,
        423,
        424,
        425,
        426,
        427,
        428,
        429,
        430,
        431,
        432,
        433,
        434,
        435,
        436,
        437,
        438,
        439,
        440,
        441,
        442,
        443,
        444,
        445,
        446,
        447,
        448,
        449,
        450,
        451,
        452,
        453,
        454,
        455,
        456,
        457,
        458,
        459,
        460,
        461,
        462,
        463,
        464,
        465,
        466,
        467,
        468,
        469,
        470,
        471,
        472,
        473,
        474,
        475,
        476,
        477,
        478,
        479,
        480,
        481,
        482,
        483,
        484,
        485,
        486,
        487,
        488,
        489,
        490,
        491,
        492,
        493,
        494,
        495,
        496,
        497,
        498,
        499,
        500,
        501,
        502,
        503,
        504,
        505,
        506,
        507,
        508,
        509,
        510,
        511,
        512,
        513,
        514,
        515,
        516,
        517,
        518,
        519,
        520,
        521,
        522,
        523,
        524,
        525,
        526,
        527,
        528,
        529,
        530,
        531,
        532,
        533,
        534,
        535,
        536,
        537,
        538,
        539,
        540,
        541,
        542,
        543,
        544,
        545,
        546,
        547,
        548,
        549,
        550,
        551,
        552,
        553,
        554,
        555,
        556,
        557,
        558,
        559,
        560,
        561,
        562,
        563,
        564,
        565,
        566,
        567,
        568,
        569,
        570,
        571,
        572,
        573,
        574,
        575,
        576,
        577,
        578,
        579,
        580,
        581,
        582,
        583,
        584,
        585,
        586,
        587,
        588,
        589,
        590,
        591,
        592,
        593,
        594,
        595,
        596,
        597,
        598,
        599,
        600
      ],
      "AcquisitionTime": [
        "082146.152500",
        "082146.952500",
        "082147.752500",
        "082148.552500",
        "082149.352500",
        "082150.152500",
        "082150.952500",
        "082151.752500",
        "082152.552500",
        "082153.352500",
        "082154.152500",
        "082154.952500",
        "082155.752500",
        "082156.552500",
        "082157.352500",
        "082158.152500",
        "082158.952500",
        "082159.752500",
        "082200.552500",
        "082201.352500",
        "082202.152500",
        "082202.952500",
        "082203.752500",
        "082204.552500",
        "082205.352500",
        "082206.152500",
        "082206.952500",
        "082207.752500",
        "082208.552500",
        "082209.352500",
        "082210.152500",
        "082210.952500",
        "082211.752500",
        "082212.552500",
        "082213.352500",
        "082214.152500",
        "082214.952500",
        "082215.752500",
        "082216.552500",
        "082217.352500",
        "082218.152500",
        "082218.952500",
        "082219.752500",
        "082220.552500",
        "082221.352500",
        "082222.152500",
        "082222.952500",
        "082223.752500",
        "082224.552500",
        "082225.352500",
        "082226.152500",
        "082226.952500",
        "082227.752500",
        "082228.552500",
        "082229.352500",
        "082230.152500",
        "082230.952500",
        "082231.752500",
        "082232.552500",
        "082233.352500",
        "082234.152500",
        "082234.952500",
        "082235.752500",
        "082236.552500",
        "082237.352500",
        "082238.152500",
        "082238.952500",
        "082239.752500",
        "082240.552500",
        "082241.352500",
        "082242.152500",
        "082242.952500",
        "082243.752500",
        "082244.552500",
        "082245.352500",
        "082246.152500",
        "082246.952500",
        "082247.752500",
        "082248.552500",
        "082249.352500",
        "082250.152500",
        "082250.952500",
        "082251.752500",
        "082252.552500",
        "082253.352500",
        "082254.152500",
        "082254.952500",
        "082255.752500",
        "082256.552500",
        "082257.352500",
        "082258.152500",
        "082258.952500",
        "082259.752500",
        "082300.552500",
        "082301.352500",
        "082302.152500",
        "082302.952500",
        "082303.752500",
        "082304.552500",
        "082305.352500",
        "082306.152500",
        "082306.952500",
        "082307.752500",
        "082308.552500",
        "082309.352500",
        "082310.152500",
        "082310.952500",
        "082311.752500",
        "082312.552500",
        "082313.352500",
        "082314.152500",
        "082314.952500",
        "082315.752500",
        "082316.552500",
        "082317.352500",
        "082318.152500",
        "082318.952500",
        "082319.752500",
        "082320.552500",
        "082321.352500",
        "082322.152500",
        "082322.952500",
        "082323.752500",
        "082324.552500",
        "082325.352500",
        "082326.152500",
        "082326.952500",
        "082327.752500",
        "082328.552500",
        "082329.352500",
        "082330.152500",
        "082330.952500",
        "082331.752500",
        "082332.552500",
        "082333.352500",
        "082334.152500",
        "082334.952500",
        "082335.752500",
        "082336.552500",
        "082337.352500",
        "082338.152500",
        "082338.952500",
        "082339.752500",
        "082340.552500",
        "082341.352500",
        "082342.152500",
        "082342.952500",
        "082343.752500",
        "082344.552500",
        "082345.352500",
        "082346.152500",
        "082346.952500",
        "082347.752500",
        "082348.552500",
        "082349.352500",
        "082350.152500",
        "082350.952500",
        "082351.752500",
        "082352.552500",
        "082353.352500",
        "082354.152500",
        "082354.952500",
        "082355.752500",
        "082356.552500",
        "082357.352500",
        "082358.152500",
        "082358.952500",
        "082359.752500",
        "082400.552500",
        "082401.352500",
        "082402.152500",
        "082402.952500",
        "082403.752500",
        "082404.552500",
        "082405.352500",
        "082406.152500",
        "082406.952500",
        "082407.752500",
        "082408.552500",
        "082409.352500",
        "082410.152500",
        "082410.952500",
        "082411.752500",
        "082412.552500",
        "082413.352500",
        "082414.152500",
        "082414.952500",
        "082415.752500",
        "082416.552500",
        "082417.352500",
        "082418.152500",
        "082418.952500",
        "082419.752500",
        "082420.552500",
        "082421.352500",
        "082422.152500",
        "082422.952500",
        "082423.752500",
        "082424.552500",
        "082425.352500",
        "082426.152500",
        "082426.952500",
        "082427.752500",
        "082428.552500",
        "082429.352500",
        "082430.152500",
        "082430.952500",
        "082431.752500",
        "082432.552500",
        "082433.352500",
        "082434.152500",
        "082434.952500",
        "082435.752500",
        "082436.552500",
        "082437.352500",
        "082438.152500",
        "082438.952500",
        "082439.752500",
        "082440.552500",
        "082441.352500",
        "082442.152500",
        "082442.952500",
        "082443.752500",
        "082444.552500",
        "082445.352500",
        "082446.152500",
        "082446.952500",
        "082447.752500",
        "082448.552500",
        "082449.352500",
        "082450.152500",
        "082450.952500",
        "082451.752500",
        "082452.552500",
        "082453.352500",
        "082454.152500",
        "082454.952500",
        "082455.752500",
        "082456.552500",
        "082457.352500",
        "082458.152500",
        "082458.952500",
        "082459.752500",
        "082500.552500",
        "082501.352500",
        "082502.152500",
        "082502.952500",
        "082503.752500",
        "082504.552500",
        "082505.352500",
        "082506.152500",
        "082506.952500",
        "082507.752500",
        "082508.552500",
        "082509.352500",
        "082510.152500",
        "082510.952500",
        "082511.752500",
        "082512.552500",
        "082513.352500",
        "082514.152500",
        "082514.952500",
        "082515.752500",
        "082516.552500",
        "082517.352500",
        "082518.152500",
        "082518.952500",
        "082519.752500",
        "082520.552500",
        "082521.352500",
        "082522.152500",
        "082522.952500",
        "082523.752500",
        "082524.552500",
        "082525.352500",
        "082526.152500",
        "082526.952500",
        "082527.752500",
        "082528.552500",
        "082529.352500",
        "082530.152500",
        "082530.952500",
        "082531.752500",
        "082532.552500",
        "082533.352500",
        "082534.152500",
        "082534.952500",
        "082535.752500",
        "082536.552500",
        "082537.352500",
        "082538.152500",
        "082538.952500",
        "082539.752500",
        "082540.552500",
        "082541.352500",
        "082542.152500",
        "082542.952500",
        "082543.752500",
        "082544.552500",
        "082545.352500",
        "082546.152500",
        "082546.952500",
        "082547.752500",
        "082548.552500",
        "082549.352500",
        "082550.152500",
        "082550.952500",
        "082551.752500",
        "082552.552500",
        "082553.352500",
        "082554.152500",
        "082554.952500",
        "082555.752500",
        "082556.552500",
        "082557.352500",
        "082558.152500",
        "082558.952500",
        "082559.752500",
        "082600.552500",
        "082601.352500",
        "082602.152500",
        "082602.952500",
        "082603.752500",
        "082604.552500",
        "082605.352500",
        "082606.152500",
        "082606.952500",
        "082607.752500",
        "082608.552500",
        "082609.352500",
        "082610.152500",
        "082610.952500",
        "082611.752500",
        "082612.552500",
        "082613.352500",
        "082614.152500",
        "082614.952500",
        "082615.752500",
        "082616.552500",
        "082617.352500",
        "082618.152500",
        "082618.952500",
        "082619.752500",
        "082620.552500",
        "082621.352500",
        "082622.152500",
        "082622.952500",
        "082623.752500",
        "082624.552500",
        "082625.352500",
        "082626.152500",
        "082626.952500",
        "082627.752500",
        "082628.552500",
        "082629.352500",
        "082630.152500",
        "082630.952500",
        "082631.752500",
        "082632.552500",
        "082633.352500",
        "082634.152500",
        "082634.952500",
        "082635.752500",
        "082636.552500",
        "082637.352500",
        "082638.152500",
        "082638.952500",
        "082639.752500",
        "082640.552500",
        "082641.352500",
        "082642.152500",
        "082642.952500",
        "082643.752500",
        "082644.552500",
        "082645.352500",
        "082646.152500",
        "082646.952500",
        "082647.752500",
        "082648.552500",
        "082649.352500",
        "082650.152500",
        "082650.952500",
        "082651.752500",
        "082652.552500",
        "082653.352500",
        "082654.152500",
        "082654.952500",
        "082655.752500",
        "082656.552500",
        "082657.352500",
        "082658.152500",
        "082658.952500",
        "082659.752500",
        "082700.552500",
        "082701.352500",
        "082702.152500",
        "082702.952500",
        "082703.752500",
        "082704.552500",
        "082705.352500",
        "082706.152500",
        "082706.952500",
        "082707.752500",
        "082708.552500",
        "082709.352500",
        "082710.152500",
        "082710.952500",
        "082711.752500",
        "082712.552500",
        "082713.352500",
        "082714.152500",
        "082714.952500",
        "082715.752500",
        "082716.552500",
        "082717.352500",
        "082718.152500",
        "082718.952500",
        "082719.752500",
        "082720.552500",
        "082721.352500",
        "082722.152500",
        "082722.952500",
        "082723.752500",
        "082724.552500",
        "082725.352500",
        "082726.152500",
        "082726.952500",
        "082727.752500",
        "082728.552500",
        "082729.352500",
        "082730.152500",
        "082730.952500",
        "082731.752500",
        "082732.552500",
        "082733.352500",
        "082734.152500",
        "082734.952500",
        "082735.752500",
        "082736.552500",
        "082737.352500",
        "082738.152500",
        "082738.952500",
        "082739.752500",
        "082740.552500",
        "082741.352500",
        "082742.152500",
        "082742.952500",
        "082743.752500",
        "082744.552500",
        "082745.352500",
        "082746.152500",
        "082746.952500",
        "082747.752500",
        "082748.552500",
        "082749.352500",
        "082750.152500",
        "082750.952500",
        "082751.752500",
        "082752.552500",
        "082753.352500",
        "082754.152500",
        "082754.952500",
        "082755.752500",
        "082756.552500",
        "082757.352500",
        "082758.152500",
        "082758.952500",
        "082759.752500",
        "082800.552500",
        "082801.352500",
        "082802.152500",
        "082802.952500",
        "082803.752500",
        "082804.552500",
        "082805.352500",
        "082806.152500",
        "082806.952500",
        "082807.752500",
        "082808.552500",
        "082809.352500",
        "082810.152500",
        "082810.952500",
        "082811.752500",
        "082812.552500",
        "082813.352500",
        "082814.152500",
        "082814.952500",
        "082815.752500",
        "082816.552500",
        "082817.352500",
        "082818.152500",
        "082818.952500",
        "082819.752500",
        "082820.552500",
        "082821.352500",
        "082822.152500",
        "082822.952500",
        "082823.752500",
        "082824.552500",
        "082825.352500",
        "082826.152500",
        "082826.952500",
        "082827.752500",
        "082828.552500",
        "082829.352500",
        "082830.152500",
        "082830.952500",
        "082831.752500",
        "082832.552500",
        "082833.352500",
        "082834.152500",
        "082834.952500",
        "082835.752500",
        "082836.552500",
        "082837.352500",
        "082838.152500",
        "082838.952500",
        "082839.752500",
        "082840.552500",
        "082841.352500",
        "082842.152500",
        "082842.952500",
        "082843.752500",
        "082844.552500",
        "082845.352500",
        "082846.152500",
        "082846.952500",
        "082847.752500",
        "082848.552500",
        "082849.352500",
        "082850.152500",
        "082850.952500",
        "082851.752500",
        "082852.552500",
        "082853.352500",
        "082854.152500",
        "082854.952500",
        "082855.752500",
        "082856.552500",
        "082857.352500",
        "082858.152500",
        "082858.952500",
        "082859.752500",
        "082900.552500",
        "082901.352500",
        "082902.152500",
        "082902.952500",
        "082903.752500",
        "082904.552500",
        "082905.352500",
        "082906.152500",
        "082906.952500",
        "082907.752500",
        "082908.552500",
        "082909.352500",
        "082910.152500",
        "082910.952500",
        "082911.752500",
        "082912.552500",
        "082913.352500",
        "082914.152500",
        "082914.952500",
        "082915.752500",
        "082916.552500",
        "082917.352500",
        "082918.152500",
        "082918.952500",
        "082919.752500",
        "082920.552500",
        "082921.352500",
        "082922.152500",
        "082922.952500",
        "082923.752500",
        "082924.552500",
        "082925.352500",
        "082926.152500",
        "082926.952500",
        "082927.752500",
        "082928.552500",
        "082929.352500",
        "082930.152500",
        "082930.952500",
        "082931.752500",
        "082932.552500",
        "082933.352500",
        "082934.152500",
        "082934.952500",
        "082935.752500",
        "082936.552500",
        "082937.352500",
        "082938.152500",
        "082938.952500",
        "082939.752500",
        "082940.552500",
        "082941.352500",
        "082942.152500",
        "082942.952500",
        "082943.752500",
        "082944.552500",
        "082945.352500"
      ],
      "ContentTime": [
        "082235.634000",
        "082235.637000",
        "082235.640000",
        "082235.648000",
        "082235.651000",
        "082235.654000",
        "082235.657000",
        "082235.660000",
        "082235.663000",
        "082235.669000",
        "082235.672000",
        "082235.675000",
        "082235.678000",
        "082235.681000",
        "082235.684000",
        "082235.687000",
        "082235.690000",
        "082235.692000",
        "082235.695000",
        "082235.698000",
        "082235.701000",
        "082235.704000",
        "082235.706000",
        "082235.713000",
        "082235.716000",
        "082235.718000",
        "082235.721000",
        "082235.724000",
        "082235.727000",
        "082235.730000",
        "082235.732000",
        "082235.736000",
        "082235.739000",
        "082235.742000",
        "082235.745000",
        "082235.748000",
        "082235.750000",
        "082235.753000",
        "082235.756000",
        "082235.759000",
        "082255.583000",
        "082255.586000",
        "082255.589000",
        "082255.592000",
        "082255.594000",
        "082255.597000",
        "082255.600000",
        "082255.603000",
        "082255.606000",
        "082255.609000",
        "082255.611000",
        "082255.616000",
        "082255.619000",
        "082255.622000",
        "082255.625000",
        "082255.628000",
        "082255.631000",
        "082255.633000",
        "082255.636000",
        "082255.639000",
        "082255.642000",
        "082255.645000",
        "082255.648000",
        "082255.650000",
        "082255.653000",
        "082255.656000",
        "082255.659000",
        "082255.662000",
        "082255.664000",
        "082255.667000",
        "082255.670000",
        "082255.673000",
        "082255.676000",
        "082255.679000",
        "082255.682000",
        "082255.684000",
        "082255.687000",
        "082255.690000",
        "082255.693000",
        "082255.696000",
        "082255.698000",
        "082255.701000",
        "082255.704000",
        "082335.583000",
        "082335.586000",
        "082335.589000",
        "082335.592000",
        "082335.595000",
        "082335.598000",
        "082335.600000",
        "082335.603000",
        "082335.606000",
        "082335.609000",
        "082335.612000",
        "082335.615000",
        "082335.618000",
        "082335.621000",
        "082335.624000",
        "082335.627000",
        "082335.629000",
        "082335.633000",
        "082335.636000",
        "082335.638000",
        "082335.641000",
        "082335.644000",
        "082335.647000",
        "082335.650000",
        "082335.652000",
        "082335.655000",
        "082335.658000",
        "082335.661000",
        "082335.664000",
        "082335.667000",
        "082335.669000",
        "082335.672000",
        "082335.675000",
        "082335.678000",
        "082335.681000",
        "082335.687000",
        "082335.690000",
        "082335.693000",
        "082335.695000",
        "082335.698000",
