{
  "AcquisitionMatrixPE": 140,
  "AcquisitionNumber": 1,
  "AcquisitionTime": "16:01:31.890000",
  "BandwidthPerPixelPhaseEncode": 10.352,
  "BaseResolution": 140,
  "BodyPartExamined": "BRAIN",
  "CoilCombinationMethod": "Sum of Squares",
  "ConsistencyInfo": "N4_VE11C_LATEST_20160120",
  "ConversionSoftware": "dcm2niix",
  "ConversionSoftwareVersion": "v1.0.20220720",
  "DerivedVendorReportedEchoSpacing": 0.000689998,
  "DeviceSerialNumber": "67026",
  "DiffusionScheme": "Monopolar",
  "DwellTime": 2.1e-06,
  "EchoTime": 0.0892,
  "EchoTrainLength": 105,
  "EffectiveEchoSpacing": 0.000689998,
  "FlipAngle": 78,
  "HeudiconvVersion": "0.11.4",
  "ImageComments": "Unaliased MB4/PE3/LB SENSE1",
  "ImageOrientationPatientDICOM": [
    0.999239,
    -0.00814981,
    0.0381472,
    0.0198843,
    0.947757,
    -0.318374
  ],
  "ImageOrientationText": "Tra>Cor(-18.6)>Sag(1.9)",
  "ImageType": [
    "ORIGINAL",
    "PRIMARY",
    "DIFFUSION",
    "NONE",
    "MB",
    "ND",
    "MOSAIC"
  ],
  "ImagingFrequency": 123.185,
  "InPlanePhaseEncodingDirectionDICOM": "COL",
  "InstitutionAddress": "13th St. 149,Charlestown,MA,US,02129",
  "InstitutionName": "Martinos Center Bay 4 Prisma",
  "InstitutionalDepartmentName": "Martinos Center",
  "MRAcquisitionType": "2D",
  "MagneticFieldStrength": 3,
  "Manufacturer": "Siemens",
  "ManufacturersModelName": "Prisma_fit",
  "MatrixCoilMode": "SENSE",
  "Modality": "MR",
  "MultibandAccelerationFactor": 4,
  "NonlinearGradientCorrection": false,
  "PartialFourier": 0.75,
  "PatientPosition": "HFS",
  "PercentPhaseFOV": 100,
  "PercentSampling": 100,
  "PhaseEncodingDirection": "j-",
  "PhaseEncodingSteps": 105,
  "PhaseResolution": 1,
  "PixelBandwidth": 1700,
  "ProcedureStepDescription": "INVESTIGATORS^Greve",
  "ProtocolName": "dMRI_dir98_AP",
  "PulseSequenceDetails": "%CustomerSeq%\\hcp_mbep2d_diff",
  "ReceiveCoilActiveElements": "HEA;HEP",
  "ReceiveCoilName": "Head_32",
  "ReconMatrixPE": 140,
  "RepetitionTime": 3.23,
  "SAR": 0.148725,
  "ScanOptions": "PFP\\EXT",
  "ScanningSequence": "EP",
  "SequenceName": "ep_b5#1",
  "SequenceVariant": "SK\\SS",
  "SeriesDescription": "dMRI_dir98_AP",
  "SeriesNumber": 42,
  "ShimSetting": [
    -1157,
    -10480,
    -10152,
    682,
    298,
    386,
    -115,
    -22
  ],
  "SliceThickness": 1.5,
  "SliceTiming": [
    0,
    1.675,
    0.1375,
    1.8125,
    0.2775,
    1.9525,
    0.4175,
    2.0925,
    0.5575,
    2.2325,
    0.6975,
    2.3725,
    0.8375,
    2.51,
    0.975,
    2.65,
    1.115,
    2.79,
    1.255,
    2.93,
    1.395,
    3.07,
    1.535,
    0,
    1.675,
    0.1375,
    1.8125,
    0.2775,
    1.9525,
    0.4175,
    2.0925,
    0.5575,
    2.2325,
    0.6975,
    2.3725,
    0.8375,
    2.51,
    0.975,
    2.65,
    1.115,
    2.79,
    1.255,
    2.93,
    1.395,
    3.07,
    1.535,
    0,
    1.675,
    0.1375,
    1.8125,
    0.2775,
    1.9525,
    0.4175,
    2.0925,
    0.5575,
    2.2325,
    0.6975,
    2.3725,
    0.8375,
    2.51,
    0.975,
    2.65,
    1.115,
    2.79,
    1.255,
    2.93,
    1.395,
    3.07,
    1.535,
    0,
    1.675,
    0.1375,
    1.8125,
    0.2775,
    1.9525,
    0.4175,
    2.0925,
    0.5575,
    2.2325,
    0.6975,
    2.3725,
    0.8375,
    2.51,
    0.975,
    2.65,
    1.115,
    2.79,
    1.255,
    2.93,
    1.395,
    3.07,
    1.535
  ],
  "SoftwareVersions": "syngo MR E11",
  "SpacingBetweenSlices": 1.5,
  "StationName": "BAY4OC",
  "TotalReadoutTime": 0.0959097,
  "TxRefAmp": 219.717,
  "WipMemBlock": "711eb08e-e589-4ad3-859c-8cf4833e6af6||Sequence: ve11c/master r/5b0256d+; Dec  9 2016 09:48:43 by eja",
  "dcmmeta_affine": [
    [
      -1.4988583326339722,
      0.029826389625668526,
      0.05033937469124794,
      98.45419311523438
    ],
    [
      0.012224720790982246,
      1.4216349124908447,
      -0.47833549976348877,
      -62.4449577331543
    ],
    [
      0.05722082033753395,
      0.47756117582321167,
      1.4207959175109863,
      -84.34054565429688
    ],
    [
      0,
      0,
      0,
      1
    ]
  ],
  "dcmmeta_reorient_transform": [
    [
      0,
      -1,
      0,
      139
    ],
    [
      1,
      0,
      0,
      0
    ],
    [
      0,
      0,
      1,
      0
    ],
    [
      0,
      0,
      0,
      1
    ]
  ],
  "dcmmeta_shape": [
    140,
    140,
    92,
    99
  ],
  "dcmmeta_slice_dim": 2,
  "dcmmeta_version": 0.6,
  "time": {
    "samples": {
      "AcquisitionNumber": [
        1,
        2,
        3,
        4,
        5,
        6,
        7,
        8,
        9,
        10,
        11,
        12,
        13,
        14,
        15,
        16,
        17,
        18,
        19,
        20,
        21,
        22,
        23,
        24,
        25,
        26,
        27,
        28,
        29,
        30,
        31,
        32,
        33,
        34,
        35,
        36,
        37,
        38,
        39,
        40,
        41,
        42,
        43,
        44,
        45,
        46,
        47,
        48,
        49,
        50,
        51,
        52,
        53,
        54,
        55,
        56,
        57,
        58,
        59,
        60,
        61,
        62,
        63,
        64,
        65,
        66,
        67,
        68,
        69,
        70,
        71,
        72,
        73,
        74,
        75,
        76,
        77,
        78,
        79,
        80,
        81,
        82,
        83,
        84,
        85,
        86,
        87,
        88,
        89,
        90,
        91,
        92,
        93,
        94,
        95,
        96,
        97,
        98,
        99
      ],
      "AcquisitionTime": [
        "160131.890000",
        "160135.120000",
        "160138.350000",
        "160141.580000",
        "160144.810000",
        "160148.040000",
        "160151.270000",
        "160154.500000",
        "160157.730000",
        "160200.960000",
        "160204.190000",
        "160207.420000",
        "160210.650000",
        "160213.880000",
        "160217.110000",
        "160220.340000",
        "160223.570000",
        "160226.800000",
        "160230.030000",
        "160233.260000",
        "160236.490000",
        "160239.720000",
        "160242.950000",
        "160246.180000",
        "160249.410000",
        "160252.640000",
        "160255.870000",
        "160259.100000",
        "160302.330000",
        "160305.560000",
        "160308.790000",
        "160312.020000",
        "160315.250000",
        "160318.480000",
        "160321.710000",
        "160324.940000",
        "160328.170000",
        "160331.400000",
        "160334.630000",
        "160337.860000",
        "160341.090000",
        "160344.320000",
        "160347.550000",
        "160350.780000",
        "160354.010000",
        "160357.240000",
        "160400.470000",
        "160403.700000",
        "160406.930000",
        "160410.160000",
        "160413.390000",
        "160416.620000",
        "160419.850000",
        "160423.080000",
        "160426.310000",
        "160429.540000",
        "160432.770000",
        "160436.000000",
        "160439.230000",
        "160442.460000",
        "160445.690000",
        "160448.920000",
        "160452.150000",
        "160455.380000",
        "160458.610000",
        "160501.840000",
        "160505.070000",
        "160508.300000",
        "160511.530000",
        "160514.760000",
        "160517.990000",
        "160521.220000",
        "160524.450000",
        "160527.680000",
        "160530.910000",
        "160534.140000",
        "160537.370000",
        "160540.600000",
        "160543.830000",
        "160547.060000",
        "160550.290000",
        "160553.520000",
        "160556.750000",
        "160559.980000",
        "160603.210000",
        "160606.440000",
        "160609.670000",
        "160612.900000",
        "160616.130000",
        "160619.360000",
        "160622.590000",
        "160625.820000",
        "160629.050000",
        "160632.280000",
        "160635.510000",
        "160638.740000",
        "160641.970000",
        "160645.200000",
        "160648.430000"
      ],
      "ContentTime": [
        "160343.746000",
        "160343.750000",
        "160343.754000",
        "160343.757000",
        "160343.760000",
        "160343.764000",
        "160343.767000",
        "160343.770000",
        "160343.780000",
        "160343.783000",
        "160343.787000",
        "160343.798000",
        "160343.801000",
        "160343.805000",
        "160343.818000",
        "160343.822000",
        "160343.825000",
        "160343.829000",
        "160343.833000",
        "160343.836000",
        "160423.702000",
        "160423.706000",
        "160423.709000",
        "160423.713000",
        "160423.716000",
        "160423.720000",
        "160423.736000",
        "160423.740000",
        "160423.743000",
        "160423.746000",
        "160423.750000",
        "160423.761000",
        "160423.764000",
        "160423.768000",
        "160423.771000",
        "160423.775000",
        "160423.779000",
        "160423.782000",
        "160423.785000",
        "160423.789000",
        "160423.792000",
        "160423.796000",
        "160423.799000",
        "160423.803000",
        "160423.806000",
        "160423.810000",
        "160423.813000",
        "160523.702000",
        "160523.706000",
        "160523.710000",
        "160523.713000",
        "160523.727000",
        "160523.731000",
        "160523.735000",
        "160523.738000",
        "160523.742000",
        "160523.746000",
        "160523.749000",
        "160523.753000",
        "160523.756000",
        "160523.760000",
        "160523.763000",
        "160523.767000",
        "160523.770000",
        "160523.774000",
        "160523.777000",
        "160523.780000",
        "160523.784000",
        "160523.787000",
        "160523.791000",
        "160523.794000",
        "160603.702000",
        "160603.706000",
        "160603.740000",
        "160603.743000",
        "160603.747000",
        "160603.750000",
        "160603.755000",
        "160603.758000",
        "160603.762000",
        "160603.765000",
        "160603.769000",
        "160603.772000",
        "160652.224000",
        "160652.234000",
        "160652.238000",
        "160652.242000",
        "160652.245000",
        "160652.249000",
        "160652.255000",
        "160652.259000",
        "160652.263000",
        "160652.267000",
        "160652.271000",
        "160652.275000",
        "160652.279000",
        "160652.284000",
        "160652.287000",
        "160652.291000"
      ],
      "InstanceCreationTime": [
        "160343.746000",
        "160343.750000",
        "160343.754000",
        "160343.757000",
        "160343.760000",
        "160343.764000",
        "160343.767000",
        "160343.770000",
        "160343.780000",
        "160343.783000",
        "160343.787000",
        "160343.798000",
        "160343.801000",
        "160343.805000",
        "160343.818000",
        "160343.822000",
        "160343.825000",
        "160343.829000",
        "160343.833000",
        "160343.836000",
        "160423.702000",
        "160423.706000",
        "160423.709000",
        "160423.713000",
        "160423.716000",
        "160423.720000",
        "160423.736000",
        "160423.740000",
        "160423.743000",
        "160423.746000",
        "160423.750000",
        "160423.761000",
        "160423.764000",
        "160423.768000",
        "160423.771000",
        "160423.775000",
        "160423.779000",
        "160423.782000",
        "160423.785000",
        "160423.789000",
        "160423.792000",
        "160423.796000",
        "160423.799000",
        "160423.803000",
        "160423.806000",
        "160423.810000",
        "160423.813000",
        "160523.702000",
        "160523.706000",
        "160523.710000",
        "160523.713000",
        "160523.727000",
        "160523.731000",
        "160523.735000",
        "160523.738000",
        "160523.742000",
        "160523.746000",
        "160523.749000",
        "160523.753000",
        "160523.756000",
        "160523.760000",
        "160523.763000",
        "160523.767000",
        "160523.770000",
        "160523.774000",
        "160523.777000",
        "160523.780000",
        "160523.784000",
        "160523.787000",
        "160523.791000",
        "160523.794000",
        "160603.702000",
        "160603.706000",
        "160603.740000",
        "160603.743000",
        "160603.747000",
        "160603.750000",
        "160603.755000",
        "160603.758000",
        "160603.762000",
        "160603.765000",
        "160603.769000",
        "160603.772000",
        "160652.224000",
        "160652.234000",
        "160652.238000",
        "160652.242000",
        "160652.245000",
        "160652.249000",
        "160652.255000",
        "160652.259000",
        "160652.263000",
        "160652.267000",
        "160652.271000",
        "160652.275000",
        "160652.279000",
        "160652.284000",
        "160652.287000",
        "160652.291000"
      ],
      "InstanceNumber": [
        1,
        2,
        3,
        4,
        5,
        6,
        7,
        8,
        9,
        10,
        11,
        12,
        13,
        14,
        15,
        16,
        17,
        18,
        19,
        20,
        21,
        22,
        23,
        24,
        25,
        26,
        27,
        28,
        29,
        30,
        31,
        32,
        33,
        34,
        35,
        36,
        37,
        38,
        39,
        40,
        41,
        42,
        43,
        44,
        45,
        46,
        47,
        48,
        49,
        50,
        51,
        52,
        53,
        54,
        55,
        56,
        57,
        58,
        59,
        60,
        61,
        62,
        63,
        64,
        65,
        66,
        67,
        68,
        69,
        70,
        71,
        72,
        73,
        74,
        75,
        76,
        77,
        78,
        79,
        80,
        81,
        82,
        83,
        84,
        85,
        86,
        87,
        88,
        89,
        90,
        91,
        92,
        93,
        94,
        95,
        96,
        97,
        98,
        99
      ],
      "LargestImagePixelValue": [
        28639,
        29596,
        5017,
        2084,
        5084,
        2422,
        5477,
        2407,
        4933,
        2255,
        5326,
        2438,
        5305,
        2582,
        5435,
        4891,
        5304,
        33296,
        2594,
        4959,
        2220,
        4934,
        3486,
        5067,
        2270,
        5203,
        2465,
        4907,
        2711,
        4877,
        2523,
        6264,
        2180,
        28540,
        5113,
        2914,
        5344,
        2977,
        5167,
        2287,
        5161,
        2166,
        5290,
        2380,
        5334,
        2117,
        4445,
        2845,
        5679,
        27028,
        2860,
        4871,
        2477,
        5046,
        3302,
        5397,
        2598,
        5534,
        2251,
        4988,
        4008,
        5346,
        2852,
        5239,
        2434,
        29409,
        5050,
        2545,
        4756,
        2406,
        5329,
        3753,
        5405,
        2418,
        5098,
        2358,
        5186,
        2243,
        5302,
        2471,
        5315,
        29327,
        2411,
        5492,
        2820,
        5566,
        2833,
        4929,
        2173,
        5523,
        2773,
        5005,
        2193,
        5249,
        2744,
        5434,
        4340,
        5435,
        2315
      ],
      "SequenceName": [
        "ep_b5#1",
        "ep_b5#1",
        "ep_b1490#2",
        "ep_b2990#3",
        "ep_b1495#4",
        "ep_b3005#5",
        "ep_b1500#6",
        "ep_b2985#7",
        "ep_b1495#8",
        "ep_b3005#9",
        "ep_b1490#10",
        "ep_b2995#11",
        "ep_b1490#12",
        "ep_b2990#13",
        "ep_b1500#14",
        "ep_b2985#15",
        "ep_b1505#16",
        "ep_b5#17",
        "ep_b3005#18",
        "ep_b1490#19",
        "ep_b2995#20",
        "ep_b1500#21",
        "ep_b3000#22",
        "ep_b1495#23",
        "ep_b3005#24",
        "ep_b1490#25",
        "ep_b2980#26",
        "ep_b1505#27",
        "ep_b2990#28",
        "ep_b1495#29",
        "ep_b3000#30",
        "ep_b1490#31",
        "ep_b3005#32",
        "ep_b5#33",
        "ep_b1505#34",
        "ep_b3000#35",
        "ep_b1490#36",
        "ep_b2980#37",
        "ep_b1495#38",
        "ep_b2995#39",
        "ep_b1500#40",
        "ep_b2995#41",
        "ep_b1505#42",
        "ep_b2990#43",
        "ep_b1495#44",
        "ep_b3000#45",
        "ep_b1495#46",
        "ep_b3000#47",
        "ep_b1485#48",
        "ep_b5#49",
        "ep_b3005#50",
        "ep_b1500#51",
        "ep_b2990#52",
        "ep_b1505#53",
        "ep_b2995#54",
        "ep_b1490#55",
        "ep_b2990#56",
        "ep_b1490#57",
        "ep_b3000#58",
        "ep_b1500#59",
        "ep_b3000#60",
        "ep_b1500#61",
        "ep_b2985#62",
        "ep_b1500#63",
        "ep_b2990#64",
        "ep_b5#65",
        "ep_b1505#66",
        "ep_b3005#67",
        "ep_b1495#68",
        "ep_b3000#69",
        "ep_b1505#70",
        "ep_b3010#71",
        "ep_b1500#72",
        "ep_b3005#73",
        "ep_b1490#74",
        "ep_b2995#75",
        "ep_b1495#76",
        "ep_b2995#77",
        "ep_b1500#78",
        "ep_b3000#79",
        "ep_b1490#80",
        "ep_b5#81",
        "ep_b2990#82",
        "ep_b1500#83",
        "ep_b2985#84",
        "ep_b1490#85",
        "ep_b2995#86",
        "ep_b1495#87",
        "ep_b2995#88",
        "ep_b1490#89",
        "ep_b2980#90",
        "ep_b1500#91",
        "ep_b3000#92",
        "ep_b1490#93",
        "ep_b3005#94",
        "ep_b1500#95",
        "ep_b2990#96",
        "ep_b1500#97",
        "ep_b3000#98"
      ],
      "TriggerTime": [
        18777.5,
        22007.5,
        25237.5,
        28467.5,
        31697.5,
        34927.5,
        38157.5,
        41387.5,
        44617.5,
        47847.5,
        51077.5,
        54307.5,
        57537.5,
        60767.5,
        63997.5,
        67227.5,
        70457.5,
        73687.5,
        76917.5,
        80147.5,
        83377.5,
        86607.5,
        89837.5,
        93067.5,
        96297.5,
        99527.5,
        102757.5,
        105987.5,
        109217.5,
        112447.5,
        115677.5,
        118907.5,
        122137.5,
        125367.5,
        128597.5,
        131827.5,
        135057.5,
        138287.5,
        141517.5,
        144747.5,
        147977.5,
        151207.5,
        154437.5,
        157667.5,
        160897.5,
        164127.5,
        167357.5,
        170587.5,
        173817.5,
        177047.5,
        180277.5,
        183507.5,
        186737.5,
        189967.5,
        193197.5,
        196427.5,
        199657.5,
        202887.5,
        206117.5,
        209347.5,
        212577.5,
        215807.5,
        219037.5,
        222267.5,
        225497.5,
        228727.5,
        231957.5,
        235187.5,
        238417.5,
        241647.5,
        244877.5,
        248107.5,
        251337.5,
        254567.5,
        257797.5,
        261027.5,
        264257.5,
        267487.5,
        270717.5,
        273947.5,
        277177.5,
        280407.5,
        283637.5,
        286867.5,
        290097.5,
        293327.5,
        296557.5,
        299787.5,
        303017.5,
        306247.5,
        309477.5,
        312707.5,
        315937.5,
        319167.5,
        322397.5,
        325627.5,
        328857.5,
        332087.5,
        335317.5
      ],
      "WindowCenter": [
        4144,
        4186,
        1522,
        853,
        1553,
        904,
        1546,
        879,
        1525,
        846,
        1519,
        899,
        1578,
        903,
        1532,
        985,
        1519,
        4231,
        894,
        1541,
        852,
        1520,
        946,
        1521,
        875,
        1502,
        874,
        1521,
        900,
        1535,
        877,
        1561,
        869,
        4160,
        1520,
        903,
        1516,
        900,
        1517,
        878,
        1534,
        851,
        1517,
        885,
        1551,
        847,
        1507,
        925,
        1549,
        4149,
        917,
        1535,
        901,
        1505,
        937,
        1532,
        913,
        1550,
        848,
        1537,
        951,
        1516,
        899,
        1563,
        900,
        4167,
        1520,
        899,
        1525,
        879,
        1532,
        957,
        1546,
        870,
        1507,
        873,
        1539,
        877,
        1550,
        877,
        1515,
        4182,
        905,
        1534,
        884,
        1563,
        911,
        1506,
        857,
        1517,
        903,
        1536,
        872,
        1567,
        908,
        1531,
        973,
        1531,
        881
      ],
      "WindowWidth": [
        9552,
        9654,
        3901,
        2343,
        3973,
        2457,
        3950,
        2405,
        3914,
        2320,
        3891,
        2459,
        4019,
        2475,
        3922,
        2641,
        3896,
        9692,
        2439,
        3949,
        2343,
        3894,
        2559,
        3898,
        2407,
        3855,
        2384,
        3897,
        2463,
        3927,
        2397,
        3978,
        2384,
        9601,
        3893,
        2456,
        3882,
        2445,
        3884,
        2421,
        3921,
        2338,
        3888,
        2422,
        3962,
        2324,
        3868,
        2519,
        3955,
        9579,
        2487,
        3927,
        2466,
        3866,
        2542,
        3917,
        2491,
        3959,
        2328,
        3933,
        2557,
        3886,
        2440,
        3989,
        2465,
        9595,
        3893,
        2457,
        3912,
        2405,
        3911,
        2578,
        3949,
        2372,
        3869,
        2400,
        3939,
        2413,
        3956,
        2398,
        3877,
        9632,
        2459,
        3924,
        2405,
        3983,
        2484,
        3865,
        2359,
        3886,
        2453,
        3930,
        2398,
        4002,
        2473,
        3917,
        2617,
        3915,
        2407
      ]
    },
    "slices": {}
  }
}
